18, 0.05, +
77, 0.21388888888888888, N
370, 1.0277777777777777, N
662, 1.8388888888888888, N
946, 2.6277777777777778, N
1231, 3.4194444444444443, N
1515, 4.208333333333333, N
1809, 5.025, N
2044, 5.677777777777778, A
2402, 6.6722222222222225, N
2706, 7.516666666666667, N
2998, 8.327777777777778, N
3282, 9.116666666666667, N
3560, 9.88888888888889, N
3862, 10.727777777777778, N
4170, 11.583333333333334, N
4466, 12.405555555555555, N
4764, 13.233333333333333, N
5060, 14.055555555555555, N
5346, 14.85, N
5633, 15.647222222222222, N
5918, 16.43888888888889, N
6214, 17.261111111111113, N
6527, 18.130555555555556, N
6823, 18.95277777777778, N
7106, 19.738888888888887, N
7391, 20.530555555555555, N
7670, 21.305555555555557, N
7953, 22.091666666666665, N
8245, 22.90277777777778, N
8539, 23.719444444444445, N
8837, 24.54722222222222, N
9141, 25.391666666666666, N
9431, 26.197222222222223, N
9710, 26.97222222222222, N
9998, 27.772222222222222, N
10282, 28.56111111111111, N
10591, 29.419444444444444, N
10894, 30.261111111111113, N
11191, 31.086111111111112, N
11480, 31.88888888888889, N
11781, 32.725, N
12066, 33.516666666666666, N
12350, 34.30555555555556, N
12645, 35.125, N
12949, 35.96944444444444, N
13266, 36.85, N
13562, 37.672222222222224, N
13842, 38.45, N
14131, 39.25277777777778, N
14423, 40.06388888888889, N
14710, 40.861111111111114, N
15011, 41.69722222222222, N
15310, 42.52777777777778, N
15607, 43.352777777777774, N
15899, 44.16388888888889, N
16183, 44.952777777777776, N
16464, 45.733333333333334, N
16755, 46.541666666666664, N
17058, 47.38333333333333, N
17358, 48.21666666666667, N
17657, 49.047222222222224, N
17947, 49.852777777777774, N
18227, 50.63055555555555, N
18514, 51.42777777777778, N
18795, 52.208333333333336, N
19080, 53.0, N
19388, 53.855555555555554, N
19693, 54.702777777777776, N
19989, 55.525, N
20271, 56.30833333333333, N
20554, 57.09444444444444, N
20837, 57.88055555555555, N
21131, 58.69722222222222, N
21423, 59.50833333333333, N
21729, 60.358333333333334, N
22029, 61.19166666666667, N
22321, 62.00277777777778, N
22603, 62.78611111111111, N
22881, 63.55833333333333, N
23164, 64.34444444444445, N
23453, 65.14722222222223, N
23756, 65.9888888888889, N
24053, 66.81388888888888, N
24345, 67.625, N
24625, 68.40277777777777, N
24913, 69.20277777777778, N
25197, 69.99166666666666, N
25485, 70.79166666666667, N
25779, 71.60833333333333, N
26088, 72.46666666666667, N
26387, 73.29722222222222, N
26670, 74.08333333333333, N
26952, 74.86666666666666, N
27237, 75.65833333333333, N
27536, 76.4888888888889, N
27833, 77.31388888888888, N
28132, 78.14444444444445, N
28431, 78.975, N
28727, 79.79722222222222, N
29014, 80.59444444444445, N
29294, 81.37222222222222, N
29580, 82.16666666666667, N
29873, 82.98055555555555, N
30182, 83.83888888888889, N
30487, 84.68611111111112, N
30779, 85.49722222222222, N
31065, 86.29166666666667, N
31348, 87.07777777777778, N
31635, 87.875, N
31927, 88.68611111111112, N
32224, 89.5111111111111, N
32529, 90.35833333333333, N
32836, 91.21111111111111, N
33127, 92.01944444444445, N
33403, 92.78611111111111, N
33691, 93.58611111111111, N
33980, 94.38888888888889, N
34274, 95.20555555555555, N
34575, 96.04166666666667, N
34870, 96.86111111111111, N
35168, 97.68888888888888, N
35455, 98.48611111111111, N
35736, 99.26666666666667, N
36016, 100.04444444444445, N
36309, 100.85833333333333, N
36605, 101.68055555555556, N
36916, 102.54444444444445, N
37215, 103.375, N
37499, 104.16388888888889, N
37782, 104.95, N
38071, 105.75277777777778, N
38356, 106.54444444444445, N
38651, 107.3638888888889, N
38950, 108.19444444444444, N
39252, 109.03333333333333, N
39547, 109.85277777777777, N
39825, 110.625, N
40096, 111.37777777777778, N
40382, 112.17222222222222, N
40677, 112.99166666666666, N
40970, 113.80555555555556, N
41271, 114.64166666666667, N
41567, 115.46388888888889, N
41849, 116.24722222222222, N
42117, 116.99166666666666, N
42416, 117.82222222222222, N
42697, 118.60277777777777, N
42996, 119.43333333333334, N
43307, 120.29722222222222, N
43603, 121.11944444444444, N
43892, 121.92222222222222, N
44172, 122.7, N
44455, 123.48611111111111, N
44743, 124.28611111111111, N
45030, 125.08333333333333, N
45323, 125.89722222222223, N
45628, 126.74444444444444, N
45925, 127.56944444444444, N
46204, 128.34444444444443, N
46478, 129.10555555555555, N
46759, 129.88611111111112, N
47037, 130.65833333333333, N
47334, 131.48333333333332, N
47632, 132.3111111111111, N
47919, 133.10833333333332, N
48202, 133.89444444444445, N
48486, 134.68333333333334, N
48766, 135.4611111111111, N
49040, 136.22222222222223, N
49323, 137.00833333333333, N
49618, 137.82777777777778, N
49923, 138.675, N
50214, 139.48333333333332, N
50491, 140.25277777777777, N
50771, 141.03055555555557, N
51056, 141.82222222222222, N
51339, 142.60833333333332, N
51626, 143.40555555555557, N
51921, 144.225, N
52216, 145.04444444444445, N
52506, 145.85, N
52784, 146.62222222222223, N
53063, 147.3972222222222, N
53341, 148.16944444444445, N
53631, 148.975, N
53923, 149.7861111111111, N
54219, 150.60833333333332, N
54507, 151.40833333333333, N
54784, 152.17777777777778, N
55064, 152.95555555555555, N
55343, 153.73055555555555, N
55625, 154.51388888888889, N
55908, 155.3, N
56207, 156.13055555555556, N
56502, 156.95, N
56784, 157.73333333333332, N
57055, 158.48611111111111, N
57333, 159.25833333333333, N
57615, 160.04166666666666, N
57900, 160.83333333333334, N
58192, 161.64444444444445, N
58490, 162.47222222222223, N
58788, 163.3, N
59077, 164.1027777777778, N
59354, 164.87222222222223, N
59631, 165.64166666666668, N
59919, 166.44166666666666, N
60214, 167.26111111111112, N
60515, 168.09722222222223, N
60817, 168.9361111111111, N
61105, 169.73611111111111, N
61391, 170.53055555555557, N
61680, 171.33333333333334, N
61963, 172.11944444444444, N
62247, 172.90833333333333, N
62547, 173.74166666666667, N
62852, 174.5888888888889, N
63154, 175.42777777777778, N
63438, 176.21666666666667, N
63711, 176.975, N
63998, 177.7722222222222, N
64288, 178.57777777777778, N
64581, 179.39166666666668, N
64876, 180.2111111111111, N
65174, 181.0388888888889, N
65464, 181.84444444444443, N
65750, 182.63888888888889, N
66030, 183.41666666666666, N
66307, 184.1861111111111, N
66604, 185.01111111111112, N
66792, 185.53333333333333, A
67130, 186.47222222222223, N
67434, 187.31666666666666, N
67728, 188.13333333333333, N
68007, 188.90833333333333, N
68302, 189.7277777777778, N
68594, 190.5388888888889, N
68886, 191.35, N
69191, 192.19722222222222, N
69503, 193.0638888888889, N
69796, 193.87777777777777, N
70073, 194.6472222222222, N
70357, 195.4361111111111, N
70643, 196.23055555555555, N
70941, 197.05833333333334, N
71240, 197.88888888888889, N
71539, 198.71944444444443, N
71845, 199.56944444444446, N
72138, 200.38333333333333, N
72417, 201.15833333333333, N
72703, 201.95277777777778, N
72998, 202.7722222222222, N
73301, 203.61388888888888, N
73611, 204.475, N
73911, 205.30833333333334, N
74196, 206.1, N
74483, 206.8972222222222, N
74767, 207.6861111111111, N
74986, 208.29444444444445, A
75332, 209.25555555555556, N
75632, 210.0888888888889, N
75934, 210.92777777777778, N
76233, 211.75833333333333, N
76515, 212.54166666666666, N
76785, 213.29166666666666, N
77074, 214.09444444444443, N
77366, 214.90555555555557, N
77663, 215.73055555555555, N
77954, 216.5388888888889, N
78251, 217.36388888888888, N
78539, 218.1638888888889, N
78824, 218.95555555555555, N
79100, 219.72222222222223, N
79386, 220.51666666666668, N
79689, 221.35833333333332, N
79991, 222.19722222222222, N
80290, 223.02777777777777, N
80583, 223.84166666666667, N
80868, 224.63333333333333, N
81152, 225.42222222222222, N
81439, 226.21944444444443, N
81730, 227.02777777777777, N
82030, 227.86111111111111, N
82335, 228.70833333333334, N
82636, 229.54444444444445, N
82927, 230.3527777777778, N
83209, 231.13611111111112, N
83492, 231.92222222222222, N
83794, 232.76111111111112, N
84103, 233.61944444444444, N
84407, 234.4638888888889, N
84709, 235.30277777777778, N
85010, 236.13888888888889, N
85303, 236.95277777777778, N
85580, 237.72222222222223, N
85870, 238.52777777777777, N
86171, 239.36388888888888, N
86478, 240.21666666666667, N
86780, 241.05555555555554, N
87079, 241.88611111111112, N
87364, 242.67777777777778, N
87652, 243.4777777777778, N
87941, 244.28055555555557, N
88232, 245.0888888888889, N
88530, 245.91666666666666, N
88834, 246.76111111111112, N
89135, 247.59722222222223, N
89421, 248.39166666666668, N
89703, 249.175, N
89988, 249.96666666666667, N
90286, 250.79444444444445, N
90590, 251.63888888888889, N
90885, 252.45833333333334, N
91190, 253.30555555555554, N
91481, 254.11388888888888, N
91761, 254.89166666666668, N
92046, 255.68333333333334, N
92338, 256.49444444444447, N
92633, 257.31388888888887, N
92944, 258.1777777777778, N
93246, 259.01666666666665, N
93534, 259.81666666666666, N
93824, 260.6222222222222, N
94102, 261.39444444444445, N
94395, 262.2083333333333, N
94693, 263.0361111111111, N
94996, 263.8777777777778, N
95298, 264.71666666666664, N
95606, 265.5722222222222, N
95893, 266.36944444444447, N
96171, 267.14166666666665, N
96450, 267.9166666666667, N
96746, 268.7388888888889, N
97050, 269.5833333333333, N
97348, 270.4111111111111, N
97644, 271.23333333333335, N
97936, 272.0444444444444, N
98228, 272.85555555555555, N
98508, 273.6333333333333, N
98789, 274.4138888888889, N
99084, 275.23333333333335, N
99382, 276.06111111111113, N
99579, 276.60833333333335, A
99930, 277.5833333333333, N
100218, 278.3833333333333, N
100496, 279.15555555555557, N
100781, 279.9472222222222, N
101071, 280.7527777777778, N
101361, 281.55833333333334, N
101653, 282.36944444444447, N
101941, 283.1694444444444, N
102234, 283.98333333333335, N
102516, 284.76666666666665, N
102793, 285.5361111111111, N
103074, 286.31666666666666, N
103371, 287.14166666666665, N
103669, 287.96944444444443, N
103964, 288.7888888888889, N
104261, 289.6138888888889, N
104545, 290.40277777777777, N
104830, 291.19444444444446, N
105118, 291.99444444444447, N
105407, 292.7972222222222, N
105707, 293.63055555555553, N
106015, 294.4861111111111, N
106314, 295.31666666666666, N
106600, 296.1111111111111, N
106882, 296.89444444444445, N
107159, 297.6638888888889, N
107453, 298.48055555555555, N
107750, 299.30555555555554, N
108045, 300.125, N
108342, 300.95, N
108643, 301.7861111111111, N
108926, 302.5722222222222, N
109199, 303.3305555555556, N
109486, 304.1277777777778, N
109772, 304.9222222222222, N
110076, 305.76666666666665, N
110374, 306.59444444444443, N
110673, 307.425, N
110963, 308.23055555555555, N
111244, 309.0111111111111, N
111524, 309.7888888888889, N
111810, 310.5833333333333, N
112108, 311.4111111111111, N
112405, 312.2361111111111, N
112710, 313.0833333333333, N
113000, 313.8888888888889, N
113281, 314.6694444444444, N
113562, 315.45, N
113850, 316.25, N
114142, 317.06111111111113, N
114428, 317.85555555555555, N
114716, 318.65555555555557, N
115000, 319.44444444444446, N
115280, 320.22222222222223, N
115547, 320.9638888888889, N
115815, 321.7083333333333, N
116084, 322.4555555555556, N
116369, 323.2472222222222, N
116654, 324.0388888888889, N
116939, 324.8305555555556, N
117213, 325.59166666666664, N
117494, 326.3722222222222, N
117766, 327.1277777777778, N
118044, 327.9, N
118323, 328.675, N
118607, 329.4638888888889, N
118911, 330.30833333333334, N
119215, 331.15277777777777, N
119509, 331.96944444444443, N
119791, 332.7527777777778, N
120077, 333.5472222222222, N
120376, 334.3777777777778, N
120676, 335.2111111111111, N
120990, 336.0833333333333, N
121300, 336.94444444444446, N
121604, 337.7888888888889, N
121889, 338.5805555555556, N
122170, 339.3611111111111, N
122460, 340.1666666666667, N
122750, 340.97222222222223, N
123050, 341.80555555555554, N
123360, 342.6666666666667, N
123664, 343.5111111111111, N
123936, 344.26666666666665, N
124221, 345.05833333333334, N
124507, 345.85277777777776, N
124775, 346.59722222222223, N
125060, 347.3888888888889, N
125355, 348.2083333333333, N
125648, 349.02222222222224, N
125926, 349.7944444444444, N
126203, 350.56388888888887, N
126476, 351.3222222222222, N
126746, 352.0722222222222, N
127025, 352.84722222222223, N
127313, 353.64722222222224, N
127603, 354.4527777777778, N
127892, 355.25555555555553, N
128085, 355.7916666666667, A
128423, 356.73055555555555, N
128698, 357.49444444444447, N
128958, 358.21666666666664, N
129230, 358.97222222222223, N
129519, 359.775, N
129798, 360.55, N
130057, 361.26944444444445, N
130318, 361.99444444444447, N
130568, 362.68888888888887, N
130818, 363.3833333333333, N
131073, 364.09166666666664, N
131326, 364.7944444444444, N
131584, 365.5111111111111, N
131851, 366.2527777777778, N
132122, 367.00555555555553, N
132381, 367.725, N
132629, 368.4138888888889, N
132883, 369.11944444444447, N
133132, 369.81111111111113, N
133390, 370.52777777777777, N
133662, 371.28333333333336, N
133933, 372.0361111111111, N
134197, 372.76944444444445, N
134463, 373.5083333333333, N
134737, 374.26944444444445, N
134990, 374.97222222222223, N
135243, 375.675, N
135504, 376.4, N
135780, 377.1666666666667, N
136061, 377.9472222222222, N
136350, 378.75, N
136630, 379.52777777777777, N
136899, 380.275, N
137170, 381.02777777777777, N
137449, 381.8027777777778, N
137729, 382.5805555555556, N
138008, 383.35555555555555, N
138304, 384.1777777777778, N
138598, 384.99444444444447, N
138888, 385.8, N
139164, 386.56666666666666, N
139440, 387.3333333333333, N
139719, 388.10833333333335, N
140009, 388.9138888888889, N
140302, 389.72777777777776, N
140599, 390.5527777777778, N
140881, 391.3361111111111, N
141152, 392.0888888888889, N
141423, 392.84166666666664, N
141684, 393.56666666666666, N
141943, 394.2861111111111, N
142207, 395.01944444444445, N
142479, 395.775, N
142747, 396.51944444444445, N
143010, 397.25, N
143265, 397.9583333333333, N
143515, 398.65277777777777, N
143766, 399.35, N
144025, 400.06944444444446, N
144286, 400.7944444444444, N
144557, 401.5472222222222, N
144832, 402.31111111111113, N
145111, 403.0861111111111, N
145381, 403.8361111111111, N
145647, 404.575, N
145902, 405.28333333333336, N
146170, 406.02777777777777, N
146445, 406.7916666666667, N
146737, 407.60277777777776, N
147013, 408.36944444444447, N
147290, 409.1388888888889, N
147565, 409.90277777777777, N
147832, 410.64444444444445, N
148099, 411.3861111111111, N
148363, 412.11944444444447, N
148637, 412.88055555555553, N
148916, 413.65555555555557, N
149204, 414.4555555555556, N
149488, 415.24444444444447, N
149768, 416.02222222222224, N
150030, 416.75, N
150303, 417.5083333333333, N
150575, 418.2638888888889, N
150849, 419.025, N
151122, 419.78333333333336, N
151407, 420.575, N
151700, 421.3888888888889, N
151974, 422.15, N
152237, 422.88055555555553, N
152510, 423.6388888888889, N
152781, 424.39166666666665, N
153067, 425.18611111111113, N
153362, 426.00555555555553, N
153644, 426.7888888888889, N
153922, 427.56111111111113, N
154193, 428.31388888888887, N
154470, 429.0833333333333, N
154741, 429.8361111111111, N
155009, 430.5805555555556, N
155291, 431.3638888888889, N
155588, 432.18888888888887, N
155865, 432.9583333333333, N
156132, 433.7, N
156395, 434.43055555555554, N
156648, 435.1333333333333, N
156906, 435.85, N
157168, 436.5777777777778, N
157430, 437.30555555555554, N
157695, 438.0416666666667, N
157960, 438.77777777777777, N
158233, 439.5361111111111, N
158489, 440.2472222222222, N
158730, 440.9166666666667, N
158974, 441.59444444444443, N
159225, 442.2916666666667, N
159479, 442.9972222222222, N
159738, 443.71666666666664, N
160001, 444.4472222222222, N
160260, 445.1666666666667, N
160507, 445.85277777777776, N
160755, 446.5416666666667, N
161005, 447.2361111111111, N
161254, 447.9277777777778, N
161499, 448.60833333333335, N
161764, 449.34444444444443, N
162035, 450.09722222222223, N
162308, 450.85555555555555, N
162573, 451.59166666666664, N
162835, 452.31944444444446, N
163093, 453.0361111111111, N
163362, 453.78333333333336, N
163629, 454.525, N
163899, 455.275, N
164182, 456.06111111111113, N
164461, 456.8361111111111, N
164731, 457.5861111111111, N
164991, 458.30833333333334, N
165246, 459.01666666666665, N
165499, 459.71944444444443, N
165756, 460.43333333333334, N
166032, 461.2, N
166301, 461.9472222222222, N
166570, 462.69444444444446, N
166841, 463.4472222222222, N
167111, 464.1972222222222, N
167371, 464.9194444444444, N
167641, 465.6694444444444, N
167912, 466.4222222222222, N
168191, 467.1972222222222, N
168484, 468.0111111111111, N
168784, 468.84444444444443, N
169074, 469.65, N
169349, 470.4138888888889, N
169629, 471.19166666666666, N
169907, 471.9638888888889, N
170201, 472.78055555555557, N
170495, 473.59722222222223, N
170719, 474.21944444444443, A
171074, 475.2055555555556, N
171371, 476.03055555555557, N
171652, 476.81111111111113, N
171921, 477.55833333333334, N
172199, 478.3305555555556, N
172481, 479.1138888888889, N
172776, 479.93333333333334, N
173067, 480.7416666666667, N
173351, 481.53055555555557, N
173629, 482.3027777777778, N
173907, 483.075, N
174176, 483.8222222222222, N
174451, 484.5861111111111, N
174737, 485.38055555555553, N
175023, 486.175, N
175323, 487.0083333333333, N
175608, 487.8, N
175877, 488.5472222222222, N
176145, 489.2916666666667, N
176427, 490.075, N
176698, 490.8277777777778, N
176975, 491.59722222222223, N
177248, 492.35555555555555, N
177523, 493.11944444444447, N
177797, 493.88055555555553, N
178059, 494.60833333333335, N
178316, 495.3222222222222, N
178578, 496.05, N
178841, 496.78055555555557, N
179117, 497.5472222222222, N
179388, 498.3, N
179662, 499.06111111111113, N
179927, 499.7972222222222, N
180182, 500.50555555555553, N
180443, 501.23055555555555, N
180705, 501.9583333333333, N
180964, 502.6777777777778, N
181236, 503.43333333333334, N
181523, 504.23055555555555, N
181811, 505.03055555555557, N
182084, 505.7888888888889, N
182353, 506.5361111111111, N
182624, 507.2888888888889, N
182896, 508.0444444444444, N
183181, 508.8361111111111, N
183475, 509.65277777777777, N
183778, 510.49444444444447, N
184071, 511.30833333333334, N
184361, 512.1138888888889, N
184649, 512.9138888888889, N
184933, 513.7027777777778, N
185213, 514.4805555555556, N
185510, 515.3055555555555, N
185828, 516.1888888888889, N
186137, 517.0472222222222, N
186428, 517.8555555555556, N
186717, 518.6583333333333, N
187005, 519.4583333333334, N
187291, 520.2527777777777, N
187577, 521.0472222222222, N
187872, 521.8666666666667, N
188179, 522.7194444444444, N
188481, 523.5583333333333, N
188763, 524.3416666666667, N
189043, 525.1194444444444, N
189330, 525.9166666666666, N
189624, 526.7333333333333, N
189929, 527.5805555555555, N
190228, 528.4111111111112, N
190529, 529.2472222222223, N
190820, 530.0555555555555, N
191112, 530.8666666666667, N
191395, 531.6527777777778, N
191674, 532.4277777777778, N
191977, 533.2694444444444, N
192281, 534.1138888888889, N
192575, 534.9305555555555, N
192862, 535.7277777777778, N
193146, 536.5166666666667, N
193423, 537.2861111111112, N
193703, 538.0638888888889, N
193994, 538.8722222222223, N
194281, 539.6694444444445, N
194574, 540.4833333333333, N
194868, 541.3, N
195156, 542.1, N
195426, 542.85, N
195701, 543.6138888888889, N
195978, 544.3833333333333, N
196268, 545.1888888888889, N
196560, 546.0, N
196847, 546.7972222222222, N
197132, 547.5888888888888, N
197414, 548.3722222222223, N
197685, 549.125, N
197950, 549.8611111111111, N
198224, 550.6222222222223, N
198504, 551.4, N
198791, 552.1972222222222, N
199075, 552.9861111111111, N
199353, 553.7583333333333, N
199619, 554.4972222222223, N
199894, 555.2611111111111, N
200161, 556.0027777777777, N
200434, 556.7611111111111, N
200714, 557.5388888888889, N
200993, 558.3138888888889, N
201271, 559.0861111111111, N
201545, 559.8472222222222, N
201806, 560.5722222222222, N
202067, 561.2972222222222, N
202339, 562.0527777777778, N
202614, 562.8166666666667, N
202896, 563.6, N
203182, 564.3944444444444, N
203468, 565.1888888888889, N
203741, 565.9472222222222, N
204021, 566.725, N
204299, 567.4972222222223, N
204574, 568.2611111111111, N
204854, 569.0388888888889, N
205158, 569.8833333333333, N
205459, 570.7194444444444, N
205737, 571.4916666666667, N
206016, 572.2666666666667, N
206288, 573.0222222222222, N
206567, 573.7972222222222, N
206844, 574.5666666666667, N
207130, 575.3611111111111, N
207421, 576.1694444444445, N
207724, 577.0111111111111, N
208004, 577.7888888888889, N
208277, 578.5472222222222, N
208548, 579.3, N
208822, 580.0611111111111, N
209100, 580.8333333333334, N
209392, 581.6444444444444, N
209683, 582.4527777777778, N
209973, 583.2583333333333, N
210256, 584.0444444444445, N
210534, 584.8166666666667, N
210809, 585.5805555555555, N
211085, 586.3472222222222, N
211364, 587.1222222222223, N
211654, 587.9277777777778, N
211951, 588.7527777777777, N
212228, 589.5222222222222, N
212502, 590.2833333333333, N
212777, 591.0472222222222, N
213058, 591.8277777777778, N
213326, 592.5722222222222, N
213606, 593.35, N
213894, 594.15, N
214181, 594.9472222222222, N
214465, 595.7361111111111, N
214738, 596.4944444444444, N
215005, 597.2361111111111, N
215280, 598.0, N
215563, 598.7861111111112, N
215850, 599.5833333333334, N
216141, 600.3916666666667, N
216431, 601.1972222222222, N
216710, 601.9722222222222, N
216990, 602.75, N
217268, 603.5222222222222, N
217547, 604.2972222222222, N
217824, 605.0666666666667, N
218122, 605.8944444444444, N
218416, 606.7111111111111, N
218703, 607.5083333333333, N
218972, 608.2555555555556, N
219246, 609.0166666666667, N
219529, 609.8027777777778, N
219813, 610.5916666666667, N
220098, 611.3833333333333, N
220391, 612.1972222222222, N
220691, 613.0305555555556, N
220977, 613.825, N
221252, 614.5888888888888, N
221527, 615.3527777777778, N
221804, 616.1222222222223, N
222081, 616.8916666666667, N
222375, 617.7083333333334, N
222666, 618.5166666666667, N
222951, 619.3083333333333, N
223227, 620.075, N
223507, 620.8527777777778, N
223783, 621.6194444444444, N
224047, 622.3527777777778, N
224328, 623.1333333333333, N
224621, 623.9472222222222, N
224915, 624.7638888888889, N
225195, 625.5416666666666, N
225472, 626.3111111111111, N
225743, 627.0638888888889, N
226024, 627.8444444444444, N
226296, 628.6, N
226573, 629.3694444444444, N
226863, 630.175, N
227144, 630.9555555555555, N
227427, 631.7416666666667, N
227702, 632.5055555555556, N
227975, 633.2638888888889, N
228238, 633.9944444444444, N
228516, 634.7666666666667, N
228808, 635.5777777777778, N
229094, 636.3722222222223, N
229376, 637.1555555555556, N
229660, 637.9444444444445, N
229936, 638.7111111111111, N
230214, 639.4833333333333, N
230485, 640.2361111111111, N
230761, 641.0027777777777, N
231058, 641.8277777777778, N
231357, 642.6583333333333, N
231638, 643.4388888888889, N
231913, 644.2027777777778, N
232190, 644.9722222222222, N
232459, 645.7194444444444, N
232732, 646.4777777777778, N
233016, 647.2666666666667, N
233301, 648.0583333333333, N
233588, 648.8555555555556, N
233875, 649.6527777777778, N
234151, 650.4194444444445, N
234415, 651.1527777777778, N
234684, 651.9, N
234959, 652.6638888888889, N
235249, 653.4694444444444, N
235547, 654.2972222222222, N
235828, 655.0777777777778, N
236108, 655.8555555555556, N
236390, 656.6388888888889, N
236664, 657.4, N
236927, 658.1305555555556, N
237205, 658.9027777777778, N
237495, 659.7083333333334, N
237783, 660.5083333333333, N
238070, 661.3055555555555, N
238343, 662.0638888888889, N
238610, 662.8055555555555, N
238884, 663.5666666666667, N
239157, 664.325, N
239433, 665.0916666666667, N
239717, 665.8805555555556, N
239996, 666.6555555555556, N
240266, 667.4055555555556, N
240541, 668.1694444444445, N
240809, 668.9138888888889, N
241065, 669.625, N
241318, 670.3277777777778, N
241588, 671.0777777777778, N
241855, 671.8194444444445, N
242114, 672.5388888888889, N
242373, 673.2583333333333, N
242632, 673.9777777777778, N
242879, 674.6638888888889, N
243132, 675.3666666666667, N
243388, 676.0777777777778, N
243643, 676.7861111111112, N
243908, 677.5222222222222, N
244191, 678.3083333333333, N
244461, 679.0583333333333, N
244729, 679.8027777777778, N
244984, 680.5111111111111, N
245246, 681.2388888888889, N
245515, 681.9861111111111, N
245791, 682.7527777777777, N
246065, 683.5138888888889, N
246352, 684.3111111111111, N
246647, 685.1305555555556, N
246935, 685.9305555555555, N
247201, 686.6694444444445, N
247469, 687.4138888888889, N
247742, 688.1722222222222, N
248017, 688.9361111111111, N
248300, 689.7222222222222, N
248586, 690.5166666666667, N
248878, 691.3277777777778, N
249158, 692.1055555555556, N
249433, 692.8694444444444, N
249706, 693.6277777777777, N
249988, 694.4111111111112, N
250273, 695.2027777777778, N
250558, 695.9944444444444, N
250858, 696.8277777777778, N
251160, 697.6666666666666, N
251441, 698.4472222222222, N
251710, 699.1944444444445, N
251994, 699.9833333333333, N
252285, 700.7916666666666, N
252584, 701.6222222222223, N
252868, 702.4111111111112, N
253159, 703.2194444444444, N
253456, 704.0444444444445, N
253741, 704.8361111111111, N
254010, 705.5833333333334, N
254282, 706.3388888888888, N
254585, 707.1805555555555, N
254891, 708.0305555555556, N
255170, 708.8055555555555, N
255453, 709.5916666666667, N
255738, 710.3833333333333, N
256027, 711.1861111111111, N
256295, 711.9305555555555, N
256572, 712.7, N
256860, 713.5, N
257157, 714.325, N
257439, 715.1083333333333, N
257710, 715.8611111111111, N
257966, 716.5722222222222, N
258226, 717.2944444444445, N
258478, 717.9944444444444, N
258737, 718.7138888888888, N
259005, 719.4583333333334, N
259280, 720.2222222222222, N
259541, 720.9472222222222, N
259811, 721.6972222222222, N
260076, 722.4333333333333, N
260334, 723.15, N
260585, 723.8472222222222, N
260852, 724.5888888888888, N
261132, 725.3666666666667, N
261417, 726.1583333333333, N
261690, 726.9166666666666, N
261968, 727.6888888888889, N
262241, 728.4472222222222, N
262516, 729.2111111111111, N
262789, 729.9694444444444, N
263062, 730.7277777777778, N
263350, 731.5277777777778, N
263641, 732.3361111111111, N
263931, 733.1416666666667, N
264217, 733.9361111111111, N
264499, 734.7194444444444, N
264772, 735.4777777777778, N
265062, 736.2833333333333, N
265354, 737.0944444444444, N
265651, 737.9194444444445, N
265947, 738.7416666666667, N
266238, 739.55, N
266528, 740.3555555555556, N
266815, 741.1527777777778, N
267099, 741.9416666666667, N
267375, 742.7083333333334, N
267679, 743.5527777777778, N
267978, 744.3833333333333, N
268260, 745.1666666666666, N
268544, 745.9555555555555, N
268823, 746.7305555555556, N
269102, 747.5055555555556, N
269384, 748.2888888888889, N
269669, 749.0805555555555, N
269960, 749.8888888888889, N
270257, 750.7138888888888, N
270550, 751.5277777777778, N
270821, 752.2805555555556, N
271094, 753.0388888888889, N
271370, 753.8055555555555, N
271656, 754.6, N
271952, 755.4222222222222, N
272244, 756.2333333333333, N
272533, 757.0361111111112, N
272839, 757.8861111111111, N
273123, 758.675, N
273394, 759.4277777777778, N
273675, 760.2083333333334, N
273967, 761.0194444444444, N
274264, 761.8444444444444, N
274560, 762.6666666666666, N
274852, 763.4777777777778, N
275131, 764.2527777777777, N
275403, 765.0083333333333, N
275671, 765.7527777777777, N
275949, 766.525, N
276235, 767.3194444444445, N
276516, 768.1, N
276804, 768.9, N
277102, 769.7277777777778, N
277388, 770.5222222222222, N
277649, 771.2472222222223, N
277923, 772.0083333333333, N
278211, 772.8083333333333, N
278518, 773.6611111111112, N
278814, 774.4833333333333, N
279098, 775.2722222222222, N
279382, 776.0611111111111, N
279576, 776.6, A
279918, 777.55, N
280209, 778.3583333333333, N
280511, 779.1972222222222, N
280814, 780.0388888888889, N
281110, 780.8611111111111, N
281402, 781.6722222222222, N
281682, 782.45, N
281955, 783.2083333333334, N
282232, 783.9777777777778, N
282513, 784.7583333333333, N
282801, 785.5583333333333, N
283096, 786.3777777777777, N
283389, 787.1916666666667, N
283672, 787.9777777777778, N
283944, 788.7333333333333, N
284216, 789.4888888888889, N
284491, 790.2527777777777, N
284778, 791.05, N
285073, 791.8694444444444, N
285363, 792.675, N
285653, 793.4805555555556, N
285936, 794.2666666666667, N
286210, 795.0277777777778, N
286486, 795.7944444444445, N
286763, 796.5638888888889, N
287051, 797.3638888888889, N
287353, 798.2027777777778, N
287655, 799.0416666666666, N
287944, 799.8444444444444, N
288225, 800.625, N
288506, 801.4055555555556, N
288792, 802.2, N
289076, 802.9888888888889, N
289373, 803.8138888888889, N
289667, 804.6305555555556, N
289971, 805.475, N
290257, 806.2694444444444, N
290538, 807.05, N
290813, 807.8138888888889, N
291109, 808.6361111111111, N
291407, 809.4638888888888, N
291696, 810.2666666666667, N
291990, 811.0833333333334, N
292281, 811.8916666666667, N
292566, 812.6833333333333, N
292844, 813.4555555555555, N
293123, 814.2305555555556, N
293411, 815.0305555555556, N
293712, 815.8666666666667, N
294011, 816.6972222222222, N
294296, 817.4888888888889, N
294581, 818.2805555555556, N
294857, 819.0472222222222, N
295142, 819.8388888888888, N
295421, 820.6138888888889, N
295717, 821.4361111111111, N
296013, 822.2583333333333, N
296319, 823.1083333333333, N
296611, 823.9194444444445, N
296889, 824.6916666666667, N
297169, 825.4694444444444, N
297450, 826.25, N
297738, 827.05, N
298032, 827.8666666666667, N
298334, 828.7055555555555, N
298627, 829.5194444444444, N
298920, 830.3333333333334, N
299206, 831.1277777777777, N
299483, 831.8972222222222, N
299756, 832.6555555555556, N
300051, 833.475, N
300360, 834.3333333333334, N
300662, 835.1722222222222, N
300940, 835.9444444444445, N
301210, 836.6944444444445, N
301494, 837.4833333333333, N
301781, 838.2805555555556, N
302063, 839.0638888888889, N
302347, 839.8527777777778, N
302644, 840.6777777777778, N
302947, 841.5194444444444, N
303240, 842.3333333333334, N
303503, 843.0638888888889, N
303773, 843.8138888888889, N
304065, 844.625, N
304361, 845.4472222222222, N
304639, 846.2194444444444, N
304923, 847.0083333333333, N
305211, 847.8083333333333, N
305497, 848.6027777777778, N
305709, 849.1916666666667, A
306035, 850.0972222222222, N
306337, 850.9361111111111, N
306641, 851.7805555555556, N
306943, 852.6194444444444, N
307234, 853.4277777777778, N
307514, 854.2055555555555, N
307745, 854.8472222222222, A
308062, 855.7277777777778, N
308349, 856.525, N
308625, 857.2916666666666, N
308912, 858.0888888888888, N
309216, 858.9333333333333, N
309515, 859.7638888888889, N
309780, 860.5, N
310052, 861.2555555555556, N
310332, 862.0333333333333, N
310626, 862.85, N
310914, 863.65, N
311199, 864.4416666666667, N
311488, 865.2444444444444, N
311783, 866.0638888888889, N
312062, 866.8388888888888, N
312327, 867.575, N
312605, 868.3472222222222, N
312825, 868.9583333333334, A
313193, 869.9805555555556, N
313508, 870.8555555555556, N
313808, 871.6888888888889, N
314090, 872.4722222222222, N
314373, 873.2583333333333, N
314664, 874.0666666666667, N
314952, 874.8666666666667, N
315245, 875.6805555555555, N
315541, 876.5027777777777, N
315843, 877.3416666666667, N
316136, 878.1555555555556, N
316415, 878.9305555555555, N
316693, 879.7027777777778, N
316980, 880.5, N
317266, 881.2944444444445, N
317560, 882.1111111111111, N
317785, 882.7361111111111, A
318145, 883.7361111111111, N
318438, 884.55, N
318729, 885.3583333333333, N
319011, 886.1416666666667, N
319223, 886.7305555555556, A
319586, 887.7388888888889, N
319904, 888.6222222222223, N
320205, 889.4583333333334, N
320493, 890.2583333333333, N
320786, 891.0722222222222, N
321072, 891.8666666666667, N
321371, 892.6972222222222, N
321663, 893.5083333333333, N
321968, 894.3555555555556, N
322275, 895.2083333333334, N
322573, 896.0361111111112, N
322856, 896.8222222222222, N
323138, 897.6055555555556, N
323425, 898.4027777777778, N
323730, 899.25, N
324044, 900.1222222222223, N
324340, 900.9444444444445, N
324641, 901.7805555555556, N
324929, 902.5805555555555, N
325215, 903.375, N
325495, 904.1527777777778, N
325782, 904.95, N
326088, 905.8, N
326395, 906.6527777777778, N
326698, 907.4944444444444, N
326986, 908.2944444444445, N
327276, 909.1, N
327566, 909.9055555555556, N
327858, 910.7166666666667, N
328149, 911.525, N
328452, 912.3666666666667, N
328753, 913.2027777777778, N
329056, 914.0444444444445, N
329339, 914.8305555555555, N
329619, 915.6083333333333, N
329912, 916.4222222222222, N
330216, 917.2666666666667, N
330524, 918.1222222222223, N
330819, 918.9416666666667, N
331124, 919.7888888888889, N
331411, 920.5861111111111, N
331704, 921.4, N
331989, 922.1916666666667, N
332279, 922.9972222222223, N
332588, 923.8555555555556, N
332897, 924.7138888888888, N
333199, 925.5527777777778, N
333479, 926.3305555555555, N
333768, 927.1333333333333, N
334056, 927.9333333333333, N
334348, 928.7444444444444, N
334643, 929.5638888888889, N
334943, 930.3972222222222, N
335248, 931.2444444444444, N
335543, 932.0638888888889, N
335823, 932.8416666666667, N
336100, 933.6111111111111, N
336385, 934.4027777777778, N
336679, 935.2194444444444, N
336979, 936.0527777777778, N
337281, 936.8916666666667, N
337571, 937.6972222222222, N
337862, 938.5055555555556, N
338145, 939.2916666666666, N
338432, 940.0888888888888, N
338720, 940.8888888888889, N
339025, 941.7361111111111, N
339327, 942.575, N
339634, 943.4277777777778, N
339926, 944.2388888888889, N
340205, 945.0138888888889, N
340492, 945.8111111111111, N
340780, 946.6111111111111, N
341075, 947.4305555555555, N
341379, 948.275, N
341684, 949.1222222222223, N
341974, 949.9277777777778, N
342266, 950.7388888888889, N
342547, 951.5194444444444, N
342822, 952.2833333333333, N
343115, 953.0972222222222, N
343409, 953.9138888888889, N
343705, 954.7361111111111, N
343995, 955.5416666666666, N
344279, 956.3305555555555, N
344556, 957.1, N
344843, 957.8972222222222, N
345129, 958.6916666666667, N
345415, 959.4861111111111, N
345722, 960.3388888888888, N
346017, 961.1583333333333, N
346308, 961.9666666666667, N
346596, 962.7666666666667, N
346804, 963.3444444444444, A
347147, 964.2972222222222, N
347454, 965.15, N
347759, 965.9972222222223, N
348063, 966.8416666666667, N
348367, 967.6861111111111, N
348658, 968.4944444444444, N
348934, 969.2611111111111, N
349221, 970.0583333333333, N
349502, 970.8388888888888, N
349804, 971.6777777777778, N
350112, 972.5333333333333, N
350410, 973.3611111111111, N
350692, 974.1444444444444, N
350980, 974.9444444444445, N
351265, 975.7361111111111, N
351481, 976.3361111111111, A
351821, 977.2805555555556, N
352115, 978.0972222222222, N
352416, 978.9333333333333, N
352711, 979.7527777777777, N
352986, 980.5166666666667, N
353257, 981.2694444444444, N
353547, 982.075, N
353832, 982.8666666666667, N
354128, 983.6888888888889, N
354426, 984.5166666666667, N
354717, 985.325, N
355015, 986.1527777777778, N
355302, 986.95, N
355579, 987.7194444444444, N
355858, 988.4944444444444, N
356165, 989.3472222222222, N
356463, 990.175, N
356758, 990.9944444444444, N
357045, 991.7916666666666, N
357327, 992.575, N
357610, 993.3611111111111, N
357900, 994.1666666666666, N
358186, 994.9611111111111, N
358482, 995.7833333333333, N
358788, 996.6333333333333, N
359086, 997.4611111111111, N
359365, 998.2361111111111, N
359634, 998.9833333333333, N
359903, 999.7305555555556, N
360182, 1000.5055555555556, N
360471, 1001.3083333333333, N
360763, 1002.1194444444444, N
361051, 1002.9194444444445, N
361343, 1003.7305555555556, N
361625, 1004.5138888888889, N
361894, 1005.2611111111111, N
362162, 1006.0055555555556, N
362451, 1006.8083333333333, N
362732, 1007.5888888888888, N
363026, 1008.4055555555556, N
363318, 1009.2166666666667, N
363606, 1010.0166666666667, N
363878, 1010.7722222222222, N
364158, 1011.55, N
364446, 1012.35, N
364730, 1013.1388888888889, N
365022, 1013.95, N
365330, 1014.8055555555555, N
365640, 1015.6666666666666, N
365914, 1016.4277777777778, N
366191, 1017.1972222222222, N
366482, 1018.0055555555556, N
366778, 1018.8277777777778, N
367063, 1019.6194444444444, N
367363, 1020.4527777777778, N
367674, 1021.3166666666667, N
367960, 1022.1111111111111, N
368247, 1022.9083333333333, N
368531, 1023.6972222222222, N
368824, 1024.5111111111112, N
369109, 1025.3027777777777, N
369410, 1026.138888888889, N
369714, 1026.9833333333333, N
370010, 1027.8055555555557, N
370279, 1028.5527777777777, N
370557, 1029.325, N
370842, 1030.1166666666666, N
371131, 1030.9194444444445, N
371406, 1031.6833333333334, N
371703, 1032.5083333333334, N
372007, 1033.3527777777779, N
372299, 1034.1638888888888, N
372557, 1034.8805555555555, N
372834, 1035.65, N
373123, 1036.4527777777778, N
373428, 1037.3, N
373712, 1038.088888888889, N
374000, 1038.888888888889, N
374303, 1039.7305555555556, N
374595, 1040.5416666666667, N
374855, 1041.263888888889, N
375124, 1042.0111111111112, N
375412, 1042.8111111111111, N
375715, 1043.6527777777778, N
375998, 1044.4388888888889, N
376287, 1045.2416666666666, N
376576, 1046.0444444444445, N
376861, 1046.8361111111112, N
377081, 1047.4472222222223, A
377404, 1048.3444444444444, N
377700, 1049.1666666666667, N
378005, 1050.013888888889, N
378308, 1050.8555555555556, N
378608, 1051.6888888888889, N
378886, 1052.4611111111112, N
379159, 1053.2194444444444, N
379439, 1053.9972222222223, N
379731, 1054.8083333333334, N
380023, 1055.6194444444445, N
380312, 1056.4222222222222, N
380610, 1057.25, N
380898, 1058.05, N
381173, 1058.8138888888889, N
381452, 1059.588888888889, N
381724, 1060.3444444444444, N
382014, 1061.15, N
382308, 1061.9666666666667, N
382607, 1062.7972222222222, N
382895, 1063.5972222222222, N
383183, 1064.3972222222221, N
383457, 1065.1583333333333, N
383743, 1065.9527777777778, N
384027, 1066.7416666666666, N
384317, 1067.5472222222222, N
384614, 1068.3722222222223, N
384915, 1069.2083333333333, N
385205, 1070.013888888889, N
385487, 1070.7972222222222, N
385768, 1071.5777777777778, N
386050, 1072.361111111111, N
386349, 1073.1916666666666, N
386649, 1074.025, N
386941, 1074.8361111111112, N
387241, 1075.6694444444445, N
387533, 1076.4805555555556, N
387811, 1077.2527777777777, N
388084, 1078.0111111111112, N
388373, 1078.8138888888889, N
388671, 1079.6416666666667, N
388979, 1080.4972222222223, N
389277, 1081.325, N
389563, 1082.1194444444445, N
389860, 1082.9444444444443, N
390149, 1083.7472222222223, N
390434, 1084.5388888888888, N
390730, 1085.361111111111, N
391039, 1086.2194444444444, N
391344, 1087.0666666666666, N
391641, 1087.8916666666667, N
391924, 1088.6777777777777, N
392204, 1089.4555555555555, N
392493, 1090.2583333333334, N
392780, 1091.0555555555557, N
393077, 1091.8805555555555, N
393377, 1092.713888888889, N
393674, 1093.5388888888888, N
393957, 1094.325, N
394243, 1095.1194444444445, N
394519, 1095.8861111111112, N
394801, 1096.6694444444445, N
395096, 1097.4888888888888, N
395401, 1098.3361111111112, N
395697, 1099.1583333333333, N
395989, 1099.9694444444444, N
396268, 1100.7444444444445, N
396553, 1101.536111111111, N
396845, 1102.3472222222222, N
397133, 1103.1472222222221, N
397335, 1103.7083333333333, A
397704, 1104.7333333333333, N
398007, 1105.575, N
398294, 1106.3722222222223, N
398569, 1107.1361111111112, N
398853, 1107.925, N
399139, 1108.7194444444444, N
399436, 1109.5444444444445, N
399730, 1110.361111111111, N
400023, 1111.175, N
400321, 1112.0027777777777, N
400599, 1112.775, N
400877, 1113.5472222222222, N
401163, 1114.3416666666667, N
401453, 1115.1472222222221, N
401757, 1115.9916666666666, N
402061, 1116.8361111111112, N
402361, 1117.6694444444445, N
402646, 1118.4611111111112, N
402933, 1119.2583333333334, N
403215, 1120.0416666666667, N
403509, 1120.8583333333333, N
403804, 1121.6777777777777, N
404100, 1122.5, N
404403, 1123.3416666666667, N
404697, 1124.1583333333333, N
404980, 1124.9444444444443, N
405255, 1125.7083333333333, N
405543, 1126.5083333333334, N
405836, 1127.3222222222223, N
406131, 1128.1416666666667, N
406425, 1128.9583333333333, N
406715, 1129.763888888889, N
407005, 1130.5694444444443, N
407288, 1131.3555555555556, N
407559, 1132.1083333333333, N
407849, 1132.9138888888888, N
408151, 1133.7527777777777, N
408452, 1134.588888888889, N
408746, 1135.4055555555556, N
409030, 1136.1944444444443, N
409314, 1136.9833333333333, N
409597, 1137.7694444444444, N
409881, 1138.5583333333334, N
410177, 1139.3805555555555, N
410477, 1140.213888888889, N
410781, 1141.0583333333334, N
411071, 1141.8638888888888, N
411352, 1142.6444444444444, N
411632, 1143.4222222222222, N
411915, 1144.2083333333333, N
412206, 1145.0166666666667, N
412512, 1145.8666666666666, N
412816, 1146.7111111111112, N
413109, 1147.525, N
413402, 1148.338888888889, N
413692, 1149.1444444444444, N
413969, 1149.9138888888888, N
414249, 1150.6916666666666, N
414541, 1151.5027777777777, N
414847, 1152.3527777777779, N
415143, 1153.175, N
415430, 1153.9722222222222, N
415703, 1154.7305555555556, N
415994, 1155.5388888888888, N
416275, 1156.3194444444443, N
416555, 1157.0972222222222, N
416849, 1157.9138888888888, N
417152, 1158.7555555555555, N
417445, 1159.5694444444443, N
417728, 1160.3555555555556, N
418006, 1161.1277777777777, N
418283, 1161.8972222222221, N
418577, 1162.713888888889, N
418866, 1163.5166666666667, N
419155, 1164.3194444444443, N
419453, 1165.1472222222221, N
419745, 1165.9583333333333, N
420022, 1166.7277777777779, N
420302, 1167.5055555555555, N
420583, 1168.286111111111, N
420873, 1169.0916666666667, N
421173, 1169.925, N
421474, 1170.7611111111112, N
421766, 1171.5722222222223, N
421994, 1172.2055555555555, A
422320, 1173.111111111111, N
422603, 1173.8972222222221, N
422818, 1174.4944444444445, A
423164, 1175.4555555555555, N
423462, 1176.2833333333333, N
423767, 1177.1305555555555, N
424064, 1177.9555555555555, N
424339, 1178.7194444444444, N
424616, 1179.4888888888888, N
424893, 1180.2583333333334, N
425188, 1181.0777777777778, N
425491, 1181.9194444444445, N
425788, 1182.7444444444445, N
426078, 1183.55, N
426380, 1184.388888888889, N
426661, 1185.1694444444445, N
426938, 1185.9388888888889, N
427225, 1186.736111111111, N
427523, 1187.5638888888889, N
427827, 1188.4083333333333, N
428129, 1189.2472222222223, N
428413, 1190.036111111111, N
428698, 1190.8277777777778, N
428992, 1191.6444444444444, N
429276, 1192.4333333333334, N
429558, 1193.2166666666667, N
429867, 1194.075, N
430165, 1194.9027777777778, N
430470, 1195.75, N
430754, 1196.5388888888888, N
431034, 1197.3166666666666, N
431315, 1198.0972222222222, N
431615, 1198.9305555555557, N
431910, 1199.75, N
432209, 1200.5805555555555, N
432509, 1201.4138888888888, N
432799, 1202.2194444444444, N
433082, 1203.0055555555555, N
433364, 1203.7888888888888, N
433648, 1204.5777777777778, N
433841, 1205.1138888888888, A
434211, 1206.1416666666667, N
434513, 1206.9805555555556, N
434810, 1207.8055555555557, N
435096, 1208.6, N
435370, 1209.361111111111, N
435658, 1210.161111111111, N
435951, 1210.975, N
436149, 1211.525, A
436512, 1212.5333333333333, N
436819, 1213.3861111111112, N
437118, 1214.2166666666667, N
437400, 1215.0, N
437682, 1215.7833333333333, N
437965, 1216.5694444444443, N
438268, 1217.411111111111, N
438570, 1218.25, N
438865, 1219.0694444444443, N
439158, 1219.8833333333334, N
439454, 1220.7055555555555, N
439740, 1221.5, N
440022, 1222.2833333333333, N
440312, 1223.088888888889, N
440622, 1223.95, N
440934, 1224.8166666666666, N
441230, 1225.638888888889, N
441518, 1226.4388888888889, N
441814, 1227.2611111111112, N
442109, 1228.0805555555555, N
442406, 1228.9055555555556, N
442623, 1229.5083333333334, A
442992, 1230.5333333333333, N
443304, 1231.4, N
443606, 1232.2388888888888, N
443888, 1233.0222222222221, N
444175, 1233.8194444444443, N
444473, 1234.6472222222221, N
444705, 1235.2916666666667, A
445060, 1236.2777777777778, N
445362, 1237.1166666666666, N
445658, 1237.9388888888889, N
445948, 1238.7444444444445, N
446226, 1239.5166666666667, N
446507, 1240.2972222222222, N
446800, 1241.111111111111, N
447104, 1241.9555555555555, N
447402, 1242.7833333333333, N
447695, 1243.5972222222222, N
447980, 1244.388888888889, N
448264, 1245.1777777777777, N
448548, 1245.9666666666667, N
448834, 1246.7611111111112, N
449137, 1247.6027777777779, N
449441, 1248.4472222222223, N
449748, 1249.3, N
450038, 1250.1055555555556, N
450325, 1250.9027777777778, N
450607, 1251.6861111111111, N
450895, 1252.486111111111, N
451193, 1253.3138888888889, N
451501, 1254.1694444444445, N
451805, 1255.013888888889, N
452101, 1255.8361111111112, N
452390, 1256.638888888889, N
452678, 1257.4388888888889, N
452959, 1258.2194444444444, N
453250, 1259.0277777777778, N
453545, 1259.8472222222222, N
453852, 1260.7, N
454154, 1261.5388888888888, N
454444, 1262.3444444444444, N
454651, 1262.9194444444445, A
454997, 1263.8805555555555, N
455293, 1264.7027777777778, N
455588, 1265.5222222222221, N
455888, 1266.3555555555556, N
456189, 1267.1916666666666, N
456487, 1268.0194444444444, N
456771, 1268.8083333333334, N
457045, 1269.5694444444443, N
457333, 1270.3694444444445, N
457634, 1271.2055555555555, N
457937, 1272.0472222222222, N
458168, 1272.6888888888889, A
458524, 1273.6777777777777, N
458816, 1274.4888888888888, N
459103, 1275.286111111111, N
459380, 1276.0555555555557, N
459664, 1276.8444444444444, N
459966, 1277.6833333333334, N
460275, 1278.5416666666667, N
460571, 1279.3638888888888, N
460858, 1280.161111111111, N
461148, 1280.9666666666667, N
461433, 1281.7583333333334, N
461721, 1282.5583333333334, N
462014, 1283.3722222222223, N
462314, 1284.2055555555555, N
462621, 1285.0583333333334, N
462919, 1285.8861111111112, N
463197, 1286.6583333333333, N
463481, 1287.4472222222223, N
463765, 1288.236111111111, N
464049, 1289.025, N
464361, 1289.8916666666667, N
464664, 1290.7333333333333, N
464960, 1291.5555555555557, N
465257, 1292.3805555555555, N
465538, 1293.161111111111, N
465820, 1293.9444444444443, N
466104, 1294.7333333333333, N
466404, 1295.5666666666666, N
466707, 1296.4083333333333, N
467010, 1297.25, N
467308, 1298.0777777777778, N
467589, 1298.8583333333333, N
467878, 1299.661111111111, N
468164, 1300.4555555555555, N
468459, 1301.275, N
468762, 1302.1166666666666, N
469065, 1302.9583333333333, N
469363, 1303.786111111111, N
469660, 1304.611111111111, N
469942, 1305.3944444444444, N
470230, 1306.1944444444443, N
470530, 1307.0277777777778, N
470837, 1307.8805555555555, N
471139, 1308.7194444444444, N
471444, 1309.5666666666666, N
471727, 1310.3527777777779, N
472019, 1311.1638888888888, N
472304, 1311.9555555555555, N
472589, 1312.7472222222223, N
472887, 1313.575, N
473201, 1314.4472222222223, N
473498, 1315.2722222222221, N
473792, 1316.088888888889, N
474074, 1316.8722222222223, N
474362, 1317.6722222222222, N
474652, 1318.4777777777779, N
474942, 1319.2833333333333, N
475237, 1320.1027777777779, N
475547, 1320.963888888889, N
475851, 1321.8083333333334, N
476136, 1322.6, N
476417, 1323.3805555555555, N
476705, 1324.1805555555557, N
477000, 1325.0, N
477307, 1325.8527777777779, N
477604, 1326.6777777777777, N
477898, 1327.4944444444445, N
478195, 1328.3194444444443, N
478480, 1329.111111111111, N
478757, 1329.8805555555555, N
479040, 1330.6666666666667, N
479332, 1331.4777777777779, N
479633, 1332.3138888888889, N
479931, 1333.1416666666667, N
480218, 1333.9388888888889, N
480494, 1334.7055555555555, N
480779, 1335.4972222222223, N
481057, 1336.2694444444444, N
481340, 1337.0555555555557, N
481641, 1337.8916666666667, N
481941, 1338.725, N
482239, 1339.5527777777777, N
482525, 1340.3472222222222, N
482801, 1341.1138888888888, N
483071, 1341.8638888888888, N
483350, 1342.638888888889, N
483634, 1343.4277777777777, N
483930, 1344.25, N
484220, 1345.0555555555557, N
484507, 1345.8527777777779, N
484786, 1346.6277777777777, N
485073, 1347.425, N
485352, 1348.2, N
485641, 1349.0027777777777, N
485939, 1349.8305555555555, N
486253, 1350.7027777777778, N
486556, 1351.5444444444445, N
486844, 1352.3444444444444, N
487129, 1353.1361111111112, N
487423, 1353.9527777777778, N
487719, 1354.775, N
488018, 1355.6055555555556, N
488320, 1356.4444444444443, N
488635, 1357.3194444444443, N
488931, 1358.1416666666667, N
489214, 1358.9277777777777, N
489497, 1359.713888888889, N
489788, 1360.5222222222221, N
490090, 1361.361111111111, N
490393, 1362.2027777777778, N
490695, 1363.0416666666667, N
490994, 1363.8722222222223, N
491287, 1364.6861111111111, N
491570, 1365.4722222222222, N
491850, 1366.25, N
492145, 1367.0694444444443, N
492445, 1367.9027777777778, N
492750, 1368.75, N
493046, 1369.5722222222223, N
493340, 1370.388888888889, N
493623, 1371.175, N
493914, 1371.9833333333333, N
494199, 1372.775, N
494491, 1373.5861111111112, N
494789, 1374.4138888888888, N
495085, 1375.236111111111, N
495370, 1376.0277777777778, N
495649, 1376.8027777777777, N
495924, 1377.5666666666666, N
496201, 1378.3361111111112, N
496499, 1379.1638888888888, N
496712, 1379.7555555555555, A
497074, 1380.7611111111112, N
497376, 1381.6, N
497664, 1382.4, N
497945, 1383.1805555555557, N
498230, 1383.9722222222222, N
498517, 1384.7694444444444, N
498812, 1385.588888888889, N
499114, 1386.4277777777777, N
499417, 1387.2694444444444, N
499701, 1388.0583333333334, N
499987, 1388.8527777777779, N
500268, 1389.6333333333334, N
500549, 1390.4138888888888, N
500847, 1391.2416666666666, N
501145, 1392.0694444444443, N
501448, 1392.911111111111, N
501745, 1393.736111111111, N
502039, 1394.5527777777777, N
502316, 1395.3222222222223, N
502601, 1396.1138888888888, N
502888, 1396.911111111111, N
503191, 1397.7527777777777, N
503496, 1398.6, N
503794, 1399.4277777777777, N
504080, 1400.2222222222222, N
504372, 1401.0333333333333, N
504654, 1401.8166666666666, N
504936, 1402.6, N
505227, 1403.4083333333333, N
505528, 1404.2444444444445, N
505830, 1405.0833333333333, N
506125, 1405.9027777777778, N
506398, 1406.661111111111, N
506679, 1407.4416666666666, N
506969, 1408.2472222222223, N
507256, 1409.0444444444445, N
507552, 1409.8666666666666, N
507855, 1410.7083333333333, N
508159, 1411.5527777777777, N
508455, 1412.375, N
508744, 1413.1777777777777, N
509019, 1413.9416666666666, N
509319, 1414.775, N
509623, 1415.6194444444445, N
509923, 1416.4527777777778, N
510220, 1417.2777777777778, N
510520, 1418.111111111111, N
510804, 1418.9, N
511093, 1419.7027777777778, N
511371, 1420.475, N
511660, 1421.2777777777778, N
511970, 1422.138888888889, N
512277, 1422.9916666666666, N
512567, 1423.7972222222222, N
512851, 1424.5861111111112, N
513135, 1425.375, N
513424, 1426.1777777777777, N
513719, 1426.9972222222223, N
514014, 1427.8166666666666, N
514318, 1428.661111111111, N
514628, 1429.5222222222221, N
514919, 1430.3305555555555, N
515194, 1431.0944444444444, N
515476, 1431.8777777777777, N
515762, 1432.6722222222222, N
516065, 1433.513888888889, N
516371, 1434.3638888888888, N
516667, 1435.1861111111111, N
516970, 1436.0277777777778, N
517266, 1436.85, N
517553, 1437.6472222222221, N
517832, 1438.4222222222222, N
518127, 1439.2416666666666, N
518426, 1440.0722222222223, N
518734, 1440.9277777777777, N
519028, 1441.7444444444445, N
519307, 1442.5194444444444, N
519594, 1443.3166666666666, N
519882, 1444.1166666666666, N
520149, 1444.8583333333333, N
520463, 1445.7305555555556, N
520768, 1446.5777777777778, N
520982, 1447.1722222222222, A
521342, 1448.1722222222222, N
521627, 1448.963888888889, N
521913, 1449.7583333333334, N
522209, 1450.5805555555555, N
522511, 1451.4194444444445, N
522815, 1452.263888888889, N
523116, 1453.1, N
523416, 1453.9333333333334, N
523708, 1454.7444444444445, N
523999, 1455.5527777777777, N
524279, 1456.3305555555555, N
524577, 1457.1583333333333, N
524890, 1458.0277777777778, N
525198, 1458.8833333333334, N
525492, 1459.7, N
525780, 1460.5, N
526064, 1461.2888888888888, N
526355, 1462.0972222222222, N
526646, 1462.9055555555556, N
526941, 1463.725, N
527243, 1464.5638888888889, N
527549, 1465.4138888888888, N
527838, 1466.2166666666667, N
528118, 1466.9944444444445, N
528402, 1467.7833333333333, N
528689, 1468.5805555555555, N
528991, 1469.4194444444445, N
529293, 1470.2583333333334, N
529599, 1471.1083333333333, N
529897, 1471.9361111111111, N
530191, 1472.7527777777777, N
530471, 1473.5305555555556, N
530762, 1474.338888888889, N
531057, 1475.1583333333333, N
531358, 1475.9944444444445, N
531668, 1476.8555555555556, N
531967, 1477.6861111111111, N
532257, 1478.4916666666666, N
532544, 1479.2888888888888, N
532828, 1480.0777777777778, N
533121, 1480.8916666666667, N
533416, 1481.7111111111112, N
533719, 1482.5527777777777, N
534012, 1483.3666666666666, N
534307, 1484.1861111111111, N
534592, 1484.9777777777779, N
534873, 1485.7583333333334, N
535161, 1486.5583333333334, N
535459, 1487.3861111111112, N
535768, 1488.2444444444445, N
536067, 1489.075, N
536364, 1489.9, N
536644, 1490.6777777777777, N
536930, 1491.4722222222222, N
537212, 1492.2555555555555, N
537505, 1493.0694444444443, N
537810, 1493.9166666666667, N
538115, 1494.763888888889, N
538421, 1495.6138888888888, N
538707, 1496.4083333333333, N
538993, 1497.2027777777778, N
539278, 1497.9944444444445, N
539575, 1498.8194444444443, N
539874, 1499.65, N
540172, 1500.4777777777779, N
540472, 1501.3111111111111, N
540768, 1502.1333333333334, N
541052, 1502.9222222222222, N
541334, 1503.7055555555555, N
541616, 1504.4888888888888, N
541916, 1505.3222222222223, N
542226, 1506.1833333333334, N
542529, 1507.025, N
542825, 1507.8472222222222, N
543116, 1508.6555555555556, N
543407, 1509.463888888889, N
543689, 1510.2472222222223, N
543983, 1511.0638888888889, N
544285, 1511.9027777777778, N
544590, 1512.75, N
544895, 1513.5972222222222, N
545182, 1514.3944444444444, N
545455, 1515.1527777777778, N
545741, 1515.9472222222223, N
546022, 1516.7277777777779, N
546306, 1517.5166666666667, N
546599, 1518.3305555555555, N
546792, 1518.8666666666666, V
547199, 1519.9972222222223, N
547482, 1520.7833333333333, N
547758, 1521.55, N
548032, 1522.3111111111111, N
548334, 1523.15, N
548632, 1523.9777777777779, N
548926, 1524.7944444444445, N
549217, 1525.6027777777779, N
549502, 1526.3944444444444, N
549784, 1527.1777777777777, N
550070, 1527.9722222222222, N
550348, 1528.7444444444445, N
550639, 1529.5527777777777, N
550952, 1530.4222222222222, N
551253, 1531.2583333333334, N
551532, 1532.0333333333333, N
551815, 1532.8194444444443, N
552096, 1533.6, N
552385, 1534.4027777777778, N
552680, 1535.2222222222222, N
552974, 1536.0388888888888, N
553282, 1536.8944444444444, N
553588, 1537.7444444444445, N
553876, 1538.5444444444445, N
554154, 1539.3166666666666, N
554439, 1540.1083333333333, N
554723, 1540.8972222222221, N
555026, 1541.7388888888888, N
555323, 1542.5638888888889, N
555613, 1543.3694444444445, N
555914, 1544.2055555555555, N
556203, 1545.0083333333334, N
556486, 1545.7944444444445, N
556765, 1546.5694444444443, N
557056, 1547.3777777777777, N
557361, 1548.225, N
557667, 1549.075, N
557962, 1549.8944444444444, N
558238, 1550.661111111111, N
558527, 1551.463888888889, N
558813, 1552.2583333333334, N
559102, 1553.0611111111111, N
559395, 1553.875, N
559695, 1554.7083333333333, N
559997, 1555.5472222222222, N
560295, 1556.375, N
560576, 1557.1555555555556, N
560846, 1557.9055555555556, N
561141, 1558.725, N
561435, 1559.5416666666667, N
561732, 1560.3666666666666, N
562019, 1561.1638888888888, N
562308, 1561.9666666666667, N
562591, 1562.7527777777777, N
562812, 1563.3666666666666, A
563141, 1564.2805555555556, N
563423, 1565.0638888888889, N
563731, 1565.9194444444445, N
564030, 1566.75, N
564320, 1567.5555555555557, N
564601, 1568.3361111111112, N
564883, 1569.1194444444445, N
565164, 1569.9, N
565452, 1570.7, N
565741, 1571.5027777777777, N
566041, 1572.3361111111112, N
566259, 1572.9416666666666, A
566615, 1573.9305555555557, N
566899, 1574.7194444444444, N
567185, 1575.513888888889, N
567379, 1576.0527777777777, A
567721, 1577.0027777777777, N
568027, 1577.8527777777779, N
568326, 1578.6833333333334, N
568624, 1579.5111111111112, N
568919, 1580.3305555555555, N
569204, 1581.1222222222223, N
569482, 1581.8944444444444, N
569762, 1582.6722222222222, N
570058, 1583.4944444444445, N
570366, 1584.35, N
570668, 1585.1888888888889, N
570957, 1585.9916666666666, N
571246, 1586.7944444444445, N
571538, 1587.6055555555556, N
571831, 1588.4194444444445, N
572122, 1589.2277777777779, N
572428, 1590.0777777777778, N
572730, 1590.9166666666667, N
573040, 1591.7777777777778, N
573328, 1592.5777777777778, N
573608, 1593.3555555555556, N
573893, 1594.1472222222221, N
574193, 1594.9805555555556, N
574429, 1595.6361111111112, A
574786, 1596.6277777777777, N
575095, 1597.486111111111, N
575387, 1598.2972222222222, N
575678, 1599.1055555555556, N
575959, 1599.8861111111112, N
576248, 1600.6888888888889, N
576551, 1601.5305555555556, N
576862, 1602.3944444444444, N
577162, 1603.2277777777779, N
577456, 1604.0444444444445, N
577741, 1604.8361111111112, N
578025, 1605.625, N
578310, 1606.4166666666667, N
578600, 1607.2222222222222, N
578901, 1608.0583333333334, N
579204, 1608.9, N
579448, 1609.5777777777778, A
579790, 1610.5277777777778, N
580074, 1611.3166666666666, N
580357, 1612.1027777777779, N
580648, 1612.911111111111, N
580947, 1613.7416666666666, N
581246, 1614.5722222222223, N
581543, 1615.3972222222221, N
581834, 1616.2055555555555, N
582119, 1616.9972222222223, N
582395, 1617.763888888889, N
582668, 1618.5222222222221, N
582919, 1619.2194444444444, N
583239, 1620.1083333333333, N
583539, 1620.9416666666666, N
583821, 1621.725, N
584097, 1622.4916666666666, N
584363, 1623.2305555555556, N
584635, 1623.986111111111, N
584903, 1624.7305555555556, N
585175, 1625.486111111111, N
585454, 1626.2611111111112, N
585731, 1627.0305555555556, N
586011, 1627.8083333333334, N
586275, 1628.5416666666667, N
586525, 1629.236111111111, N
586771, 1629.9194444444445, N
587030, 1630.638888888889, N
587299, 1631.3861111111112, N
587572, 1632.1444444444444, N
587843, 1632.8972222222221, N
588113, 1633.6472222222221, N
588377, 1634.3805555555555, N
588643, 1635.1194444444445, N
588905, 1635.8472222222222, N
589177, 1636.6027777777779, N
589454, 1637.3722222222223, N
589747, 1638.1861111111111, N
590040, 1639.0, N
590316, 1639.7666666666667, N
590588, 1640.5222222222221, N
590863, 1641.286111111111, N
591143, 1642.0638888888889, N
591417, 1642.825, N
591706, 1643.6277777777777, N
591999, 1644.4416666666666, N
592288, 1645.2444444444445, N
592571, 1646.0305555555556, N
592853, 1646.8138888888889, N
593068, 1647.411111111111, A
593387, 1648.2972222222222, N
593683, 1649.1194444444445, N
593990, 1649.9722222222222, N
594280, 1650.7777777777778, N
594563, 1651.5638888888889, N
594855, 1652.375, N
595127, 1653.1305555555555, N
595402, 1653.8944444444444, N
595690, 1654.6944444444443, N
595992, 1655.5333333333333, N
596278, 1656.3277777777778, N
596584, 1657.1777777777777, N
596879, 1657.9972222222223, N
597136, 1658.7111111111112, N
597402, 1659.45, N
597670, 1660.1944444444443, N
597925, 1660.9027777777778, N
598186, 1661.6277777777777, N
598458, 1662.3833333333334, N
598713, 1663.0916666666667, N
598969, 1663.8027777777777, N
599222, 1664.5055555555555, N
599468, 1665.1888888888889, N
599703, 1665.8416666666667, N
599952, 1666.5333333333333, N
600214, 1667.2611111111112, N
600483, 1668.0083333333334, N
600739, 1668.7194444444444, N
601011, 1669.475, N
601273, 1670.2027777777778, N
601537, 1670.9361111111111, N
601799, 1671.6638888888888, N
602064, 1672.4, N
602330, 1673.138888888889, N
602610, 1673.9166666666667, N
602893, 1674.7027777777778, N
603179, 1675.4972222222223, N
603455, 1676.263888888889, N
603722, 1677.0055555555555, N
603989, 1677.7472222222223, N
604277, 1678.5472222222222, N
604564, 1679.3444444444444, N
604844, 1680.1222222222223, N
605148, 1680.9666666666667, N
605459, 1681.8305555555555, N
605737, 1682.6027777777779, N
606008, 1683.3555555555556, N
606293, 1684.1472222222221, N
606587, 1684.963888888889, N
606880, 1685.7777777777778, N
607178, 1686.6055555555556, N
607475, 1687.4305555555557, N
607766, 1688.2388888888888, N
608043, 1689.0083333333334, N
608309, 1689.7472222222223, N
608576, 1690.4888888888888, N
608853, 1691.2583333333334, N
609136, 1692.0444444444445, N
609425, 1692.8472222222222, N
609715, 1693.6527777777778, N
609987, 1694.4083333333333, N
610262, 1695.1722222222222, N
610544, 1695.9555555555555, N
610823, 1696.7305555555556, N
611108, 1697.5222222222221, N
611399, 1698.3305555555555, N
611695, 1699.1527777777778, N
611986, 1699.9611111111112, N
612263, 1700.7305555555556, N
612539, 1701.4972222222223, N
612819, 1702.275, N
613108, 1703.0777777777778, N
613399, 1703.8861111111112, N
613693, 1704.7027777777778, N
613983, 1705.5083333333334, N
614259, 1706.275, N
614539, 1707.0527777777777, N
614816, 1707.8222222222223, N
615089, 1708.5805555555555, N
615370, 1709.361111111111, N
615676, 1710.2111111111112, N
615968, 1711.0222222222221, N
616250, 1711.8055555555557, N
616526, 1712.5722222222223, N
616803, 1713.3416666666667, N
617086, 1714.1277777777777, N
617366, 1714.9055555555556, N
617655, 1715.7083333333333, N
617949, 1716.525, N
618248, 1717.3555555555556, N
618528, 1718.1333333333334, N
618804, 1718.9, N
619081, 1719.6694444444445, N
619362, 1720.45, N
619653, 1721.2583333333334, N
619951, 1722.0861111111112, N
620249, 1722.9138888888888, N
620541, 1723.725, N
620826, 1724.5166666666667, N
621102, 1725.2833333333333, N
621379, 1726.0527777777777, N
621661, 1726.8361111111112, N
621944, 1727.6222222222223, N
622247, 1728.463888888889, N
622541, 1729.2805555555556, N
622823, 1730.0638888888889, N
623089, 1730.8027777777777, N
623367, 1731.575, N
623638, 1732.3277777777778, N
623917, 1733.1027777777779, N
624191, 1733.8638888888888, N
624482, 1734.6722222222222, N
624765, 1735.4583333333333, N
625048, 1736.2444444444445, N
625309, 1736.9694444444444, N
625579, 1737.7194444444444, N
625853, 1738.4805555555556, N
626138, 1739.2722222222221, N
626427, 1740.075, N
626715, 1740.875, N
627000, 1741.6666666666667, N
627281, 1742.4472222222223, N
627555, 1743.2083333333333, N
627827, 1743.963888888889, N
628103, 1744.7305555555556, N
628391, 1745.5305555555556, N
628688, 1746.3555555555556, N
628981, 1747.1694444444445, N
629171, 1747.6972222222223, A
629494, 1748.5944444444444, N
629761, 1749.3361111111112, N
630027, 1750.075, N
630289, 1750.8027777777777, N
630561, 1751.5583333333334, N
630836, 1752.3222222222223, N
631110, 1753.0833333333333, N
631377, 1753.825, N
631636, 1754.5444444444445, N
631898, 1755.2722222222221, N
632156, 1755.9888888888888, N
632414, 1756.7055555555555, N
632688, 1757.4666666666667, N
632958, 1758.2166666666667, N
633229, 1758.9694444444444, N
633498, 1759.7166666666667, N
633768, 1760.4666666666667, N
634028, 1761.1888888888889, N
634283, 1761.8972222222221, N
634545, 1762.625, N
634826, 1763.4055555555556, N
635107, 1764.1861111111111, N
635394, 1764.9833333333333, N
635684, 1765.7888888888888, N
635966, 1766.5722222222223, N
636238, 1767.3277777777778, N
636520, 1768.111111111111, N
636811, 1768.9194444444445, N
637105, 1769.736111111111, N
637399, 1770.5527777777777, N
637704, 1771.4, N
637997, 1772.213888888889, N
638282, 1773.0055555555555, N
638560, 1773.7777777777778, N
638846, 1774.5722222222223, N
639140, 1775.388888888889, N
639446, 1776.2388888888888, N
639744, 1777.0666666666666, N
640039, 1777.8861111111112, N
640329, 1778.6916666666666, N
640615, 1779.486111111111, N
640900, 1780.2777777777778, N
641178, 1781.05, N
641479, 1781.8861111111112, N
641777, 1782.713888888889, N
642065, 1783.513888888889, N
642337, 1784.2694444444444, N
642614, 1785.0388888888888, N
642887, 1785.7972222222222, N
643164, 1786.5666666666666, N
643439, 1787.3305555555555, N
643721, 1788.1138888888888, N
644005, 1788.9027777777778, N
644286, 1789.6833333333334, N
644547, 1790.4083333333333, N
644807, 1791.1305555555555, N
645063, 1791.8416666666667, N
645320, 1792.5555555555557, N
645581, 1793.2805555555556, N
645863, 1794.0638888888889, N
646132, 1794.8111111111111, N
646393, 1795.536111111111, N
646658, 1796.2722222222221, N
646916, 1796.9888888888888, N
647168, 1797.6888888888889, N
647414, 1798.3722222222223, N
647672, 1799.088888888889, N
647934, 1799.8166666666666, N
648203, 1800.5638888888889, N
648477, 1801.325, N
648733, 1802.036111111111, N
648978, 1802.7166666666667, N
649232, 1803.4222222222222, N
649484, 1804.1222222222223, N
649734, 1804.8166666666666, N
649991, 1805.5305555555556, N
