7, 0.019444444444444445, +
83, 0.23055555555555557, N
396, 1.1, N
711, 1.975, N
1032, 2.8666666666666667, N
1368, 3.8, N
1712, 4.7555555555555555, N
2036, 5.655555555555556, N
2349, 6.525, N
2662, 7.394444444444445, N
2972, 8.255555555555556, N
3301, 9.169444444444444, N
3631, 10.08611111111111, N
3960, 11.0, N
4283, 11.897222222222222, N
4609, 12.802777777777777, N
4928, 13.688888888888888, N
5241, 14.558333333333334, N
5569, 15.469444444444445, N
5898, 16.383333333333333, N
6223, 17.28611111111111, N
6528, 18.133333333333333, N
6830, 18.97222222222222, N
7143, 19.841666666666665, N
7463, 20.730555555555554, N
7786, 21.627777777777776, N
8105, 22.51388888888889, N
8414, 23.372222222222224, N
8721, 24.225, N
9026, 25.072222222222223, N
9321, 25.891666666666666, N
9628, 26.744444444444444, N
9953, 27.647222222222222, N
10281, 28.558333333333334, N
10590, 29.416666666666668, N
10892, 30.255555555555556, N
11185, 31.069444444444443, N
11470, 31.86111111111111, N
11760, 32.666666666666664, N
12050, 33.47222222222222, N
12338, 34.272222222222226, N
12621, 35.05833333333333, N
12911, 35.86388888888889, N
13183, 36.61944444444445, N
13457, 37.38055555555555, N
13740, 38.166666666666664, N
14030, 38.97222222222222, N
14333, 39.81388888888889, N
14640, 40.666666666666664, N
14923, 41.452777777777776, N
15195, 42.208333333333336, N
15474, 42.983333333333334, N
15760, 43.77777777777778, N
16051, 44.58611111111111, N
16351, 45.419444444444444, N
16655, 46.263888888888886, N
16956, 47.1, N
17250, 47.916666666666664, N
17532, 48.7, N
17814, 49.483333333333334, N
18099, 50.275, N
18396, 51.1, N
18687, 51.90833333333333, N
18977, 52.71388888888889, N
19267, 53.519444444444446, N
19558, 54.327777777777776, N
19860, 55.166666666666664, N
20173, 56.03611111111111, N
20493, 56.925, N
20822, 57.83888888888889, N
21166, 58.794444444444444, N
21498, 59.71666666666667, N
21808, 60.577777777777776, N
22130, 61.47222222222222, N
22451, 62.36388888888889, N
22782, 63.28333333333333, N
23126, 64.2388888888889, N
23457, 65.15833333333333, N
23774, 66.03888888888889, N
24090, 66.91666666666667, N
24404, 67.78888888888889, N
24720, 68.66666666666667, N
25040, 69.55555555555556, N
25374, 70.48333333333333, N
25704, 71.4, N
26008, 72.24444444444444, N
26310, 73.08333333333333, N
26637, 73.99166666666666, N
26967, 74.90833333333333, N
27303, 75.84166666666667, N
27621, 76.725, N
27934, 77.59444444444445, N
28243, 78.45277777777778, N
28559, 79.33055555555555, N
28861, 80.16944444444445, N
29155, 80.98611111111111, N
29467, 81.85277777777777, N
29782, 82.72777777777777, N
30088, 83.57777777777778, N
30387, 84.40833333333333, N
30688, 85.24444444444444, N
30985, 86.06944444444444, N
31310, 86.97222222222223, N
31634, 87.87222222222222, N
31947, 88.74166666666666, N
32262, 89.61666666666666, N
32565, 90.45833333333333, N
32866, 91.29444444444445, N
33165, 92.125, N
33467, 92.96388888888889, N
33777, 93.825, N
34092, 94.7, N
34391, 95.53055555555555, N
34679, 96.33055555555555, N
34980, 97.16666666666667, N
35288, 98.02222222222223, N
35598, 98.88333333333334, N
35912, 99.75555555555556, N
36217, 100.60277777777777, N
36529, 101.46944444444445, N
36837, 102.325, N
37141, 103.16944444444445, N
37450, 104.02777777777777, N
37773, 104.925, N
38099, 105.83055555555555, N
38430, 106.75, N
38748, 107.63333333333334, N
39059, 108.49722222222222, N
39376, 109.37777777777778, N
39692, 110.25555555555556, N
40013, 111.14722222222223, N
40340, 112.05555555555556, N
40603, 112.78611111111111, ~
40668, 112.96666666666667, N
40884, 113.56666666666666, |
40976, 113.82222222222222, N
41265, 114.625, N
41543, 115.39722222222223, N
41829, 116.19166666666666, N
41930, 116.47222222222223, ~
42126, 117.01666666666667, N
42421, 117.83611111111111, N
42714, 118.65, N
42990, 119.41666666666667, N
43268, 120.18888888888888, N
43546, 120.96111111111111, N
43816, 121.71111111111111, N
44095, 122.48611111111111, N
44387, 123.29722222222222, N
44676, 124.1, N
44977, 124.93611111111112, N
45270, 125.75, N
45553, 126.53611111111111, N
45839, 127.33055555555555, N
46138, 128.1611111111111, N
46440, 129.0, N
46750, 129.86111111111111, N
47060, 130.72222222222223, N
47359, 131.55277777777778, N
47655, 132.375, N
47944, 133.17777777777778, N
48228, 133.96666666666667, N
48517, 134.76944444444445, N
48821, 135.61388888888888, N
49125, 136.45833333333334, N
49422, 137.28333333333333, N
49699, 138.05277777777778, N
49978, 138.82777777777778, N
50248, 139.57777777777778, N
50527, 140.3527777777778, N
50816, 141.15555555555557, N
51114, 141.98333333333332, N
51400, 142.77777777777777, N
51687, 143.575, N
51965, 144.34722222222223, N
52239, 145.10833333333332, N
52512, 145.86666666666667, N
52794, 146.65, N
53087, 147.4638888888889, N
53381, 148.28055555555557, N
53667, 149.075, N
53947, 149.8527777777778, N
54221, 150.61388888888888, N
54517, 151.4361111111111, N
54814, 152.26111111111112, N
55107, 153.075, N
55405, 153.90277777777777, N
55710, 154.75, N
56011, 155.5861111111111, N
56307, 156.40833333333333, N
56607, 157.24166666666667, N
56918, 158.10555555555555, N
57252, 159.03333333333333, N
57592, 159.9777777777778, N
57928, 160.9111111111111, N
58245, 161.79166666666666, N
58542, 162.61666666666667, N
58845, 163.45833333333334, N
59166, 164.35, N
59490, 165.25, N
59822, 166.17222222222222, N
60156, 167.1, N
60477, 167.99166666666667, N
60784, 168.84444444444443, N
61089, 169.69166666666666, N
61395, 170.54166666666666, N
61727, 171.4638888888889, N
62058, 172.38333333333333, N
62359, 173.21944444444443, N
62672, 174.0888888888889, N
62994, 174.98333333333332, N
63096, 175.26666666666668, |
63315, 175.875, N
63414, 176.15, |
63631, 176.75277777777777, N
63967, 177.6861111111111, N
64292, 178.5888888888889, N
64627, 179.51944444444445, N
64929, 180.35833333333332, N
65245, 181.23611111111111, N
65576, 182.15555555555557, N
65906, 183.07222222222222, N
66225, 183.95833333333334, N
66564, 184.9, N
66890, 185.80555555555554, N
67198, 186.6611111111111, N
67510, 187.52777777777777, N
67832, 188.42222222222222, N
68164, 189.34444444444443, N
68505, 190.29166666666666, N
68830, 191.19444444444446, N
69136, 192.04444444444445, N
69446, 192.90555555555557, N
69757, 193.76944444444445, N
70082, 194.67222222222222, N
70417, 195.6027777777778, N
70752, 196.53333333333333, N
71088, 197.46666666666667, N
71400, 198.33333333333334, N
71710, 199.19444444444446, N
72021, 200.05833333333334, N
72350, 200.97222222222223, N
72680, 201.88888888888889, N
73002, 202.78333333333333, N
73307, 203.63055555555556, N
73600, 204.44444444444446, N
73912, 205.3111111111111, N
74229, 206.19166666666666, N
74556, 207.1, N
74896, 208.04444444444445, N
75213, 208.925, N
75537, 209.825, N
75854, 210.70555555555555, N
76167, 211.575, N
76493, 212.48055555555555, N
76831, 213.41944444444445, N
77161, 214.3361111111111, N
77498, 215.2722222222222, N
77827, 216.1861111111111, N
78147, 217.075, N
78474, 217.98333333333332, N
78815, 218.93055555555554, N
79159, 219.88611111111112, N
79516, 220.87777777777777, N
79853, 221.8138888888889, N
80161, 222.66944444444445, N
80464, 223.51111111111112, N
80773, 224.36944444444444, N
81107, 225.29722222222222, N
81452, 226.25555555555556, N
81790, 227.19444444444446, N
82113, 228.09166666666667, N
82443, 229.00833333333333, N
82773, 229.925, N
83107, 230.8527777777778, N
83433, 231.75833333333333, N
83777, 232.7138888888889, N
84118, 233.6611111111111, N
84427, 234.51944444444445, N
84735, 235.375, N
85072, 236.3111111111111, N
85418, 237.2722222222222, N
85752, 238.2, N
86068, 239.07777777777778, N
86372, 239.92222222222222, N
86683, 240.7861111111111, N
86992, 241.64444444444445, N
87305, 242.51388888888889, N
87654, 243.48333333333332, N
88000, 244.44444444444446, N
88338, 245.38333333333333, N
88667, 246.29722222222222, N
88999, 247.21944444444443, N
89345, 248.18055555555554, N
89699, 249.1638888888889, N
90060, 250.16666666666666, N
90399, 251.10833333333332, N
90737, 252.04722222222222, N
91069, 252.96944444444443, N
91397, 253.88055555555556, N
91743, 254.84166666666667, N
92094, 255.81666666666666, N
92448, 256.8, N
92791, 257.7527777777778, N
93131, 258.6972222222222, N
93471, 259.64166666666665, N
93817, 260.60277777777776, N
94157, 261.5472222222222, N
94517, 262.5472222222222, N
94869, 263.525, N
95199, 264.44166666666666, N
95528, 265.35555555555555, N
95864, 266.2888888888889, N
96227, 267.2972222222222, N
96589, 268.3027777777778, N
96941, 269.28055555555557, N
97284, 270.23333333333335, N
97612, 271.14444444444445, N
97950, 272.0833333333333, N
98290, 273.02777777777777, N
98647, 274.01944444444445, N
99012, 275.03333333333336, N
99358, 275.99444444444447, N
99692, 276.9222222222222, N
100016, 277.8222222222222, N
100361, 278.78055555555557, N
100722, 279.78333333333336, N
101086, 280.7944444444444, N
101426, 281.7388888888889, N
101771, 282.6972222222222, N
102113, 283.64722222222224, N
102456, 284.6, N
102825, 285.625, N
103197, 286.65833333333336, N
103555, 287.65277777777777, N
103881, 288.55833333333334, N
104210, 289.47222222222223, N
104548, 290.4111111111111, N
104883, 291.34166666666664, N
105199, 292.21944444444443, N
105532, 293.14444444444445, N
105852, 294.03333333333336, N
106182, 294.95, N
106505, 295.84722222222223, N
106842, 296.78333333333336, N
107208, 297.8, N
107567, 298.7972222222222, N
107918, 299.77222222222224, N
108253, 300.7027777777778, N
108574, 301.59444444444443, N
108918, 302.55, N
109274, 303.5388888888889, N
109634, 304.5388888888889, N
109998, 305.55, N
110346, 306.51666666666665, N
110691, 307.475, N
111047, 308.4638888888889, N
111410, 309.47222222222223, N
111791, 310.53055555555557, N
112165, 311.56944444444446, N
112522, 312.56111111111113, N
112880, 313.55555555555554, N
113245, 314.56944444444446, N
113615, 315.59722222222223, N
113985, 316.625, N
114354, 317.65, N
114681, 318.55833333333334, |
114705, 318.625, Q
115062, 319.6166666666667, N
115124, 319.7888888888889, ~
115478, 320.77222222222224, ~
115742, 321.50555555555553, N
116091, 322.475, N
116436, 323.43333333333334, N
116769, 324.35833333333335, N
117098, 325.27222222222224, N
117433, 326.2027777777778, N
117779, 327.1638888888889, N
118144, 328.1777777777778, N
118512, 329.2, N
118853, 330.14722222222224, N
119177, 331.0472222222222, N
119512, 331.97777777777776, N
119845, 332.90277777777777, N
120171, 333.80833333333334, N
120502, 334.72777777777776, N
120823, 335.61944444444447, N
121148, 336.52222222222224, N
121458, 337.3833333333333, N
121760, 338.22222222222223, N
122091, 339.14166666666665, N
122446, 340.1277777777778, N
122802, 341.1166666666667, N
123145, 342.06944444444446, N
123475, 342.9861111111111, N
123823, 343.9527777777778, N
124179, 344.94166666666666, N
124536, 345.93333333333334, N
124893, 346.925, N
125233, 347.86944444444447, N
125563, 348.7861111111111, N
125889, 349.69166666666666, N
126227, 350.63055555555553, N
126592, 351.64444444444445, N
126953, 352.64722222222224, N
127298, 353.60555555555555, N
127636, 354.5444444444444, N
127968, 355.46666666666664, N
128290, 356.3611111111111, N
128631, 357.30833333333334, N
128985, 358.2916666666667, N
129352, 359.31111111111113, N
129694, 360.2611111111111, N
130007, 361.13055555555553, N
130333, 362.0361111111111, N
130649, 362.9138888888889, N
130989, 363.85833333333335, N
131319, 364.775, N
131647, 365.68611111111113, N
131957, 366.5472222222222, N
132266, 367.40555555555557, N
132576, 368.26666666666665, N
132911, 369.1972222222222, N
133273, 370.2027777777778, N
133649, 371.2472222222222, N
134018, 372.27222222222224, N
134365, 373.2361111111111, N
134721, 374.225, N
135105, 375.2916666666667, N
135299, 375.8305555555556, A
135725, 377.0138888888889, N
136087, 378.01944444444445, N
136434, 378.98333333333335, N
136785, 379.9583333333333, N
137137, 380.93611111111113, N
137507, 381.9638888888889, N
137887, 383.01944444444445, N
138232, 383.97777777777776, N
138581, 384.9472222222222, N
138934, 385.9277777777778, N
139310, 386.97222222222223, N
139689, 388.025, N
140063, 389.06388888888887, N
140433, 390.09166666666664, N
140775, 391.0416666666667, N
141126, 392.01666666666665, N
141494, 393.0388888888889, N
141873, 394.09166666666664, N
142251, 395.14166666666665, N
142610, 396.1388888888889, N
142948, 397.0777777777778, N
143307, 398.075, N
143680, 399.1111111111111, N
144060, 400.1666666666667, N
144440, 401.22222222222223, N
144808, 402.24444444444447, N
145156, 403.2111111111111, N
145507, 404.18611111111113, N
145878, 405.21666666666664, N
146249, 406.2472222222222, N
146604, 407.23333333333335, N
146961, 408.225, N
147315, 409.2083333333333, N
147671, 410.1972222222222, N
148051, 411.2527777777778, N
148435, 412.31944444444446, N
148811, 413.3638888888889, N
149166, 414.35, N
149521, 415.3361111111111, N
149881, 416.3361111111111, N
150259, 417.3861111111111, N
150649, 418.46944444444443, N
151012, 419.47777777777776, N
151367, 420.4638888888889, N
151729, 421.46944444444443, N
152092, 422.47777777777776, N
152470, 423.52777777777777, N
152861, 424.6138888888889, N
153243, 425.675, N
153598, 426.6611111111111, N
153960, 427.6666666666667, N
154344, 428.73333333333335, N
154722, 429.78333333333336, N
155101, 430.8361111111111, N
155477, 431.88055555555553, N
155837, 432.88055555555553, N
156187, 433.85277777777776, N
156555, 434.875, N
156944, 435.9555555555556, N
157323, 437.0083333333333, N
157672, 437.97777777777776, N
158028, 438.96666666666664, N
158385, 439.9583333333333, N
158755, 440.9861111111111, N
159118, 441.99444444444447, N
159489, 443.025, N
159866, 444.0722222222222, N
160216, 445.0444444444444, N
160573, 446.0361111111111, N
160951, 447.0861111111111, N
161334, 448.15, N
161717, 449.2138888888889, N
162087, 450.2416666666667, N
162455, 451.2638888888889, N
162819, 452.275, N
163204, 453.34444444444443, N
163595, 454.43055555555554, N
163972, 455.47777777777776, N
164333, 456.48055555555555, N
164692, 457.47777777777776, N
165053, 458.48055555555555, N
165441, 459.55833333333334, N
165832, 460.64444444444445, N
166203, 461.675, N
166558, 462.6611111111111, N
166920, 463.6666666666667, N
167293, 464.7027777777778, N
167654, 465.7055555555556, N
168030, 466.75, N
168389, 467.7472222222222, N
168728, 468.68888888888887, N
169053, 469.59166666666664, N
169391, 470.53055555555557, N
169764, 471.56666666666666, N
170128, 472.5777777777778, N
170481, 473.55833333333334, N
170844, 474.56666666666666, N
171192, 475.53333333333336, N
171538, 476.49444444444447, N
171902, 477.50555555555553, N
172272, 478.53333333333336, N
172645, 479.56944444444446, N
172991, 480.53055555555557, N
173329, 481.46944444444443, N
173700, 482.5, N
174087, 483.575, N
174455, 484.59722222222223, N
174833, 485.64722222222224, N
175192, 486.64444444444445, N
175545, 487.625, N
175914, 488.65, N
176286, 489.68333333333334, N
176664, 490.73333333333335, N
177032, 491.75555555555553, N
177378, 492.71666666666664, N
177697, 493.60277777777776, N
178030, 494.52777777777777, N
178388, 495.52222222222224, N
178752, 496.53333333333336, N
179130, 497.5833333333333, N
179490, 498.5833333333333, N
179836, 499.5444444444444, N
180214, 500.59444444444443, N
180597, 501.65833333333336, N
180975, 502.7083333333333, N
181342, 503.72777777777776, N
181691, 504.6972222222222, N
182042, 505.6722222222222, N
182387, 506.63055555555553, N
182733, 507.59166666666664, N
183074, 508.5388888888889, N
183425, 509.5138888888889, N
183767, 510.4638888888889, N
184105, 511.40277777777777, N
184448, 512.3555555555556, N
184806, 513.35, N
185157, 514.325, N
185494, 515.2611111111111, N
185822, 516.1722222222222, N
186153, 517.0916666666667, N
186490, 518.0277777777778, N
186846, 519.0166666666667, N
187206, 520.0166666666667, N
187570, 521.0277777777778, N
187895, 521.9305555555555, N
188208, 522.8, N
188530, 523.6944444444445, N
188860, 524.6111111111111, N
189211, 525.5861111111111, N
189561, 526.5583333333333, N
189900, 527.5, N
190236, 528.4333333333333, N
190563, 529.3416666666667, N
190882, 530.2277777777778, N
191226, 531.1833333333333, N
191580, 532.1666666666666, N
191936, 533.1555555555556, N
192263, 534.0638888888889, N
192586, 534.9611111111111, N
192918, 535.8833333333333, N
193257, 536.825, N
193605, 537.7916666666666, N
193949, 538.7472222222223, N
194285, 539.6805555555555, N
194622, 540.6166666666667, N
194953, 541.5361111111112, N
195285, 542.4583333333334, N
195636, 543.4333333333333, N
196004, 544.4555555555555, N
196365, 545.4583333333334, N
196702, 546.3944444444444, N
197045, 547.3472222222222, N
197391, 548.3083333333333, N
197734, 549.2611111111111, N
198083, 550.2305555555556, N
198433, 551.2027777777778, N
198780, 552.1666666666666, N
199117, 553.1027777777778, N
199457, 554.0472222222222, N
199810, 555.0277777777778, N
200168, 556.0222222222222, N
200524, 557.0111111111111, N
200870, 557.9722222222222, N
201213, 558.925, N
201550, 559.8611111111111, N
201895, 560.8194444444445, N
202242, 561.7833333333333, N
202598, 562.7722222222222, N
202960, 563.7777777777778, N
203309, 564.7472222222223, N
203648, 565.6888888888889, N
203997, 566.6583333333333, N
204344, 567.6222222222223, N
204689, 568.5805555555555, N
205033, 569.5361111111112, N
205365, 570.4583333333334, N
205697, 571.3805555555556, N
206047, 572.3527777777778, N
206419, 573.3861111111111, N
206785, 574.4027777777778, N
207160, 575.4444444444445, N
207520, 576.4444444444445, N
207879, 577.4416666666667, N
208235, 578.4305555555555, N
208623, 579.5083333333333, N
209015, 580.5972222222222, N
209377, 581.6027777777778, N
209746, 582.6277777777777, N
210109, 583.6361111111111, N
210473, 584.6472222222222, N
210848, 585.6888888888889, N
211239, 586.775, N
211621, 587.8361111111111, N
211976, 588.8222222222222, N
212351, 589.8638888888889, N
212726, 590.9055555555556, N
213095, 591.9305555555555, N
213462, 592.95, N
213813, 593.925, N
214152, 594.8666666666667, N
214496, 595.8222222222222, N
214847, 596.7972222222222, N
215234, 597.8722222222223, N
215567, 598.7972222222222, A
215981, 599.9472222222222, N
216337, 600.9361111111111, N
216689, 601.9138888888889, N
217038, 602.8833333333333, N
217389, 603.8583333333333, N
217719, 604.775, N
218060, 605.7222222222222, N
218391, 606.6416666666667, N
218712, 607.5333333333333, N
219066, 608.5166666666667, N
219442, 609.5611111111111, N
219819, 610.6083333333333, N
220183, 611.6194444444444, N
220549, 612.6361111111111, N
220916, 613.6555555555556, N
221281, 614.6694444444445, N
221668, 615.7444444444444, N
222038, 616.7722222222222, N
222388, 617.7444444444444, N
222729, 618.6916666666667, N
223064, 619.6222222222223, N
223417, 620.6027777777778, N
223782, 621.6166666666667, N
224136, 622.6, N
224485, 623.5694444444445, N
224826, 624.5166666666667, N
225171, 625.475, N
225515, 626.4305555555555, N
225889, 627.4694444444444, N
226266, 628.5166666666667, N
226634, 629.5388888888889, N
226996, 630.5444444444445, N
227350, 631.5277777777778, N
227704, 632.5111111111111, N
228086, 633.5722222222222, N
228466, 634.6277777777777, N
228826, 635.6277777777777, N
229191, 636.6416666666667, N
229550, 637.6388888888889, N
229900, 638.6111111111111, N
230272, 639.6444444444444, N
230660, 640.7222222222222, N
231032, 641.7555555555556, N
231373, 642.7027777777778, N
231734, 643.7055555555555, N
232104, 644.7333333333333, N
232476, 645.7666666666667, N
232853, 646.8138888888889, N
233228, 647.8555555555556, N
233593, 648.8694444444444, N
233939, 649.8305555555555, N
234309, 650.8583333333333, N
234705, 651.9583333333334, N
235084, 653.0111111111111, N
235452, 654.0333333333333, N
235812, 655.0333333333333, N
236174, 656.0388888888889, N
236543, 657.0638888888889, N
236936, 658.1555555555556, N
237325, 659.2361111111111, N
237680, 660.2222222222222, N
238027, 661.1861111111111, N
238382, 662.1722222222222, N
238734, 663.15, N
239108, 664.1888888888889, N
239482, 665.2277777777778, N
239829, 666.1916666666667, N
240176, 667.1555555555556, N
240536, 668.1555555555556, N
240904, 669.1777777777778, N
241281, 670.225, N
241663, 671.2861111111112, N
242035, 672.3194444444445, N
242385, 673.2916666666666, N
242751, 674.3083333333333, N
243139, 675.3861111111111, N
243527, 676.4638888888888, N
243902, 677.5055555555556, N
244268, 678.5222222222222, N
244639, 679.5527777777778, N
244994, 680.5388888888889, N
245374, 681.5944444444444, N
245769, 682.6916666666667, N
246139, 683.7194444444444, N
246488, 684.6888888888889, N
246844, 685.6777777777778, N
247224, 686.7333333333333, N
247598, 687.7722222222222, N
247975, 688.8194444444445, N
248351, 689.8638888888889, N
248707, 690.8527777777778, N
249045, 691.7916666666666, N
249406, 692.7944444444445, N
249782, 693.8388888888888, N
250145, 694.8472222222222, N
250507, 695.8527777777778, N
250852, 696.8111111111111, N
251203, 697.7861111111112, N
251550, 698.75, N
251919, 699.775, N
252299, 700.8305555555555, N
252660, 701.8333333333334, N
253018, 702.8277777777778, N
253374, 703.8166666666667, N
253744, 704.8444444444444, N
254123, 705.8972222222222, N
254501, 706.9472222222222, N
254873, 707.9805555555556, N
255220, 708.9444444444445, N
255586, 709.9611111111111, N
255962, 711.0055555555556, N
256342, 712.0611111111111, N
256732, 713.1444444444444, N
257109, 714.1916666666667, N
257458, 715.1611111111112, N
257823, 716.175, N
258207, 717.2416666666667, N
258585, 718.2916666666666, N
258958, 719.3277777777778, N
259325, 720.3472222222222, N
259682, 721.3388888888888, N
260022, 722.2833333333333, N
260376, 723.2666666666667, N
260752, 724.3111111111111, N
261126, 725.35, N
261478, 726.3277777777778, N
261827, 727.2972222222222, N
262186, 728.2944444444445, N
262549, 729.3027777777778, N
262922, 730.3388888888888, N
263297, 731.3805555555556, N
263646, 732.35, N
264002, 733.3388888888888, N
264356, 734.3222222222222, N
264714, 735.3166666666667, N
265097, 736.3805555555556, N
265470, 737.4166666666666, N
265817, 738.3805555555556, N
266167, 739.3527777777778, N
266533, 740.3694444444444, N
266899, 741.3861111111111, N
267268, 742.4111111111112, N
267637, 743.4361111111111, N
267998, 744.4388888888889, N
268346, 745.4055555555556, N
268694, 746.3722222222223, N
269071, 747.4194444444445, N
269452, 748.4777777777778, N
269814, 749.4833333333333, N
270171, 750.475, N
270535, 751.4861111111111, N
270887, 752.4638888888888, N
271259, 753.4972222222223, N
271643, 754.5638888888889, N
272006, 755.5722222222222, N
272361, 756.5583333333333, N
272714, 757.5388888888889, N
273077, 758.5472222222222, N
273448, 759.5777777777778, N
273821, 760.6138888888889, N
274190, 761.6388888888889, N
274538, 762.6055555555556, N
274895, 763.5972222222222, N
275261, 764.6138888888889, N
275621, 765.6138888888889, N
276002, 766.6722222222222, N
276378, 767.7166666666667, N
276725, 768.6805555555555, N
277069, 769.6361111111111, N
277433, 770.6472222222222, N
277818, 771.7166666666667, N
278180, 772.7222222222222, N
278539, 773.7194444444444, N
278906, 774.7388888888889, N
279255, 775.7083333333334, N
279604, 776.6777777777778, N
279983, 777.7305555555556, N
280373, 778.8138888888889, N
280734, 779.8166666666667, N
281089, 780.8027777777778, N
281454, 781.8166666666667, N
281821, 782.8361111111111, N
282192, 783.8666666666667, N
282574, 784.9277777777778, N
282944, 785.9555555555555, N
283296, 786.9333333333333, N
283658, 787.9388888888889, N
284022, 788.95, N
284406, 790.0166666666667, N
284778, 791.05, N
285147, 792.075, N
285501, 793.0583333333333, N
285850, 794.0277777777778, N
286222, 795.0611111111111, N
286598, 796.1055555555556, N
286965, 797.125, N
287326, 798.1277777777777, N
287680, 799.1111111111111, N
288032, 800.0888888888888, N
288394, 801.0944444444444, N
288785, 802.1805555555555, N
289149, 803.1916666666667, N
289506, 804.1833333333333, N
289868, 805.1888888888889, N
290214, 806.15, N
290574, 807.15, N
290953, 808.2027777777778, N
291318, 809.2166666666667, N
291673, 810.2027777777778, N
292025, 811.1805555555555, N
292374, 812.15, N
292739, 813.1638888888889, N
293117, 814.2138888888888, N
293493, 815.2583333333333, N
293844, 816.2333333333333, N
294195, 817.2083333333334, N
294552, 818.2, N
294909, 819.1916666666667, N
295270, 820.1944444444445, N
295638, 821.2166666666667, N
295989, 822.1916666666667, N
296335, 823.1527777777778, N
296687, 824.1305555555556, N
297070, 825.1944444444445, N
297445, 826.2361111111111, N
297807, 827.2416666666667, N
298183, 828.2861111111112, N
298538, 829.2722222222222, N
298892, 830.2555555555556, N
299267, 831.2972222222222, N
299625, 832.2916666666666, N
299989, 833.3027777777778, N
300325, 834.2361111111111, N
300639, 835.1083333333333, N
300970, 836.0277777777778, N
301301, 836.9472222222222, N
301657, 837.9361111111111, N
302025, 838.9583333333334, N
302393, 839.9805555555556, N
302745, 840.9583333333334, N
303101, 841.9472222222222, N
303473, 842.9805555555556, N
303862, 844.0611111111111, N
304239, 845.1083333333333, N
304611, 846.1416666666667, N
304977, 847.1583333333333, N
305338, 848.1611111111112, N
305705, 849.1805555555555, N
306081, 850.225, N
306471, 851.3083333333333, N
306832, 852.3111111111111, N
307189, 853.3027777777778, N
307544, 854.2888888888889, N
307908, 855.3, N
308294, 856.3722222222223, Q
308637, 857.325, N
308980, 858.2777777777778, N
309327, 859.2416666666667, N
309668, 860.1888888888889, N
310028, 861.1888888888889, N
310407, 862.2416666666667, N
310785, 863.2916666666666, N
311133, 864.2583333333333, N
311477, 865.2138888888888, N
311824, 866.1777777777778, N
312172, 867.1444444444444, N
312539, 868.1638888888889, N
312905, 869.1805555555555, N
313248, 870.1333333333333, N
313594, 871.0944444444444, N
313943, 872.0638888888889, N
314287, 873.0194444444444, N
314650, 874.0277777777778, N
314986, 874.9611111111111, N
315305, 875.8472222222222, N
315612, 876.7, N
315923, 877.5638888888889, N
316234, 878.4277777777778, N
316564, 879.3444444444444, N
316902, 880.2833333333333, N
317232, 881.2, N
317585, 882.1805555555555, N
317928, 883.1333333333333, N
318279, 884.1083333333333, N
318636, 885.1, N
319018, 886.1611111111112, N
319400, 887.2222222222222, N
319760, 888.2222222222222, N
320107, 889.1861111111111, N
320468, 890.1888888888889, N
320838, 891.2166666666667, N
321220, 892.2777777777778, N
321584, 893.2888888888889, N
321949, 894.3027777777778, N
322301, 895.2805555555556, N
322648, 896.2444444444444, N
323014, 897.2611111111111, N
323392, 898.3111111111111, N
323761, 899.3361111111111, N
324112, 900.3111111111111, N
324455, 901.2638888888889, N
324815, 902.2638888888889, N
325182, 903.2833333333333, N
325547, 904.2972222222222, N
325912, 905.3111111111111, N
326257, 906.2694444444444, N
326571, 907.1416666666667, N
326884, 908.0111111111111, N
327202, 908.8944444444444, N
327555, 909.875, N
327916, 910.8777777777777, N
328268, 911.8555555555556, N
328618, 912.8277777777778, N
328973, 913.8138888888889, N
329339, 914.8305555555555, N
329721, 915.8916666666667, N
330090, 916.9166666666666, N
330465, 917.9583333333334, N
330826, 918.9611111111111, N
331197, 919.9916666666667, N
331574, 921.0388888888889, N
331952, 922.0888888888888, N
332321, 923.1138888888889, N
332688, 924.1333333333333, N
333051, 925.1416666666667, N
333405, 926.125, N
333742, 927.0611111111111, N
334110, 928.0833333333334, N
334457, 929.0472222222222, N
334785, 929.9583333333334, N
335095, 930.8194444444445, N
335399, 931.6638888888889, N
335709, 932.525, N
336019, 933.3861111111111, N
336345, 934.2916666666666, N
336669, 935.1916666666667, N
336994, 936.0944444444444, N
337310, 936.9722222222222, N
337624, 937.8444444444444, N
337951, 938.7527777777777, N
338300, 939.7222222222222, N
338660, 940.7222222222222, N
339015, 941.7083333333334, N
339361, 942.6694444444445, N
339724, 943.6777777777778, N
340072, 944.6444444444444, N
340434, 945.65, N
340785, 946.625, N
341115, 947.5416666666666, N
341442, 948.45, N
341773, 949.3694444444444, N
342124, 950.3444444444444, N
342506, 951.4055555555556, N
342888, 952.4666666666667, N
343268, 953.5222222222222, N
343635, 954.5416666666666, N
344007, 955.575, N
344378, 956.6055555555556, N
344746, 957.6277777777777, N
345124, 958.6777777777778, N
345487, 959.6861111111111, N
345827, 960.6305555555556, N
346154, 961.5388888888889, N
346497, 962.4916666666667, N
346860, 963.5, N
347205, 964.4583333333334, N
347527, 965.3527777777778, N
347857, 966.2694444444444, N
348190, 967.1944444444445, N
348520, 968.1111111111111, N
348868, 969.0777777777778, N
349228, 970.0777777777778, N
349593, 971.0916666666667, N
349930, 972.0277777777778, N
350239, 972.8861111111111, N
350538, 973.7166666666667, N
350842, 974.5611111111111, N
351149, 975.4138888888889, N
351455, 976.2638888888889, N
351779, 977.1638888888889, N
352101, 978.0583333333333, N
352441, 979.0027777777777, N
352786, 979.9611111111111, N
353151, 980.975, N
353534, 982.0388888888889, N
353898, 983.05, N
354250, 984.0277777777778, N
354580, 984.9444444444445, N
354909, 985.8583333333333, N
355232, 986.7555555555556, N
355573, 987.7027777777778, N
355930, 988.6944444444445, N
356292, 989.7, N
356646, 990.6833333333333, N
356994, 991.65, N
357360, 992.6666666666666, N
357744, 993.7333333333333, N
358129, 994.8027777777778, N
358498, 995.8277777777778, N
358862, 996.8388888888888, N
359220, 997.8333333333334, N
359579, 998.8305555555555, N
359959, 999.8861111111111, N
360333, 1000.925, N
360700, 1001.9444444444445, N
361031, 1002.8638888888889, N
361361, 1003.7805555555556, N
361717, 1004.7694444444444, N
362057, 1005.7138888888888, N
362408, 1006.6888888888889, N
362743, 1007.6194444444444, N
363048, 1008.4666666666667, N
363346, 1009.2944444444445, N
363642, 1010.1166666666667, N
363938, 1010.9388888888889, N
364267, 1011.8527777777778, N
364619, 1012.8305555555555, N
364954, 1013.7611111111111, N
365270, 1014.6388888888889, N
365582, 1015.5055555555556, N
365913, 1016.425, N
366275, 1017.4305555555555, N
366653, 1018.4805555555556, N
367036, 1019.5444444444445, N
367413, 1020.5916666666667, N
367782, 1021.6166666666667, N
368156, 1022.6555555555556, N
368549, 1023.7472222222223, N
368944, 1024.8444444444444, N
369317, 1025.8805555555555, N
369656, 1026.8222222222223, N
370013, 1027.8138888888889, N
370370, 1028.8055555555557, N
370728, 1029.8, N
371092, 1030.8111111111111, N
371450, 1031.8055555555557, N
371803, 1032.786111111111, N
372148, 1033.7444444444445, N
372501, 1034.725, N
372878, 1035.7722222222221, N
373238, 1036.7722222222221, N
373594, 1037.7611111111112, N
373943, 1038.7305555555556, N
374300, 1039.7222222222222, N
374661, 1040.725, N
375032, 1041.7555555555555, N
375413, 1042.8138888888889, N
375773, 1043.8138888888889, N
376122, 1044.7833333333333, N
376474, 1045.7611111111112, N
376836, 1046.7666666666667, N
377205, 1047.7916666666667, N
377567, 1048.7972222222222, N
377925, 1049.7916666666667, N
378285, 1050.7916666666667, N
378624, 1051.7333333333333, N
378972, 1052.7, N
379345, 1053.736111111111, N
379720, 1054.7777777777778, N
380074, 1055.7611111111112, N
380414, 1056.7055555555555, N
380756, 1057.6555555555556, N
381119, 1058.6638888888888, N
381465, 1059.625, N
381795, 1060.5416666666667, N
382141, 1061.5027777777777, N
382468, 1062.411111111111, N
382796, 1063.3222222222223, N
383121, 1064.225, N
383468, 1065.1888888888889, N
383844, 1066.2333333333333, N
384196, 1067.2111111111112, N
384547, 1068.1861111111111, N
384894, 1069.15, N
385244, 1070.1222222222223, N
385605, 1071.125, N
385980, 1072.1666666666667, N
386357, 1073.213888888889, N
386715, 1074.2083333333333, N
387068, 1075.1888888888889, N
387421, 1076.1694444444445, N
387767, 1077.1305555555555, N
388135, 1078.1527777777778, N
388475, 1079.0972222222222, N
388796, 1079.9888888888888, N
389107, 1080.8527777777779, N
389432, 1081.7555555555555, N
389769, 1082.6916666666666, N
390117, 1083.6583333333333, N
390466, 1084.6277777777777, N
390823, 1085.6194444444445, N
391175, 1086.5972222222222, N
391523, 1087.5638888888889, N
391875, 1088.5416666666667, N
392254, 1089.5944444444444, N
392627, 1090.6305555555555, N
392980, 1091.611111111111, N
393321, 1092.5583333333334, N
393673, 1093.536111111111, N
394029, 1094.525, N
394391, 1095.5305555555556, N
394773, 1096.5916666666667, N
395129, 1097.5805555555555, N
395458, 1098.4944444444445, N
395801, 1099.4472222222223, N
396151, 1100.4194444444445, N
396525, 1101.4583333333333, N
396897, 1102.4916666666666, N
397267, 1103.5194444444444, N
397622, 1104.5055555555555, N
397965, 1105.4583333333333, N
398314, 1106.4277777777777, N
398682, 1107.45, N
399045, 1108.4583333333333, N
399411, 1109.475, N
399764, 1110.4555555555555, N
400112, 1111.4222222222222, N
400450, 1112.361111111111, N
400801, 1113.3361111111112, N
401147, 1114.2972222222222, N
401490, 1115.25, N
401828, 1116.1888888888889, N
402177, 1117.1583333333333, N
402534, 1118.15, N
402897, 1119.1583333333333, N
403282, 1120.2277777777779, N
403660, 1121.2777777777778, N
404030, 1122.3055555555557, N
404381, 1123.2805555555556, N
404750, 1124.3055555555557, N
405129, 1125.3583333333333, N
405501, 1126.3916666666667, N
405885, 1127.4583333333333, N
406249, 1128.4694444444444, N
406605, 1129.4583333333333, N
406957, 1130.4361111111111, N
407339, 1131.4972222222223, N
407727, 1132.575, N
408088, 1133.5777777777778, N
408451, 1134.5861111111112, N
408807, 1135.575, N
409155, 1136.5416666666667, N
409529, 1137.5805555555555, N
409910, 1138.638888888889, N
410279, 1139.6638888888888, N
410630, 1140.638888888889, N
410980, 1141.611111111111, N
411331, 1142.5861111111112, N
411707, 1143.6305555555555, N
412079, 1144.6638888888888, N
412439, 1145.6638888888888, N
412792, 1146.6444444444444, N
413149, 1147.6361111111112, N
413498, 1148.6055555555556, N
413863, 1149.6194444444445, N
414254, 1150.7055555555555, N
414615, 1151.7083333333333, N
414961, 1152.6694444444445, N
415317, 1153.6583333333333, N
415669, 1154.6361111111112, N
416041, 1155.6694444444445, N
416410, 1156.6944444444443, N
416769, 1157.6916666666666, N
417123, 1158.675, N
417469, 1159.6361111111112, N
417816, 1160.6, N
418183, 1161.6194444444445, N
418563, 1162.675, N
418916, 1163.6555555555556, N
419265, 1164.625, N
419621, 1165.6138888888888, N
419970, 1166.5833333333333, N
420341, 1167.6138888888888, N
420699, 1168.6083333333333, N
421066, 1169.6277777777777, N
421420, 1170.611111111111, N
421761, 1171.5583333333334, N
422113, 1172.536111111111, N
422482, 1173.5611111111111, N
422859, 1174.6083333333333, N
423215, 1175.5972222222222, N
423553, 1176.536111111111, N
423890, 1177.4722222222222, N
424229, 1178.4138888888888, N
424560, 1179.3333333333333, N
424893, 1180.2583333333334, N
425240, 1181.2222222222222, N
425583, 1182.175, N
425920, 1183.111111111111, N
426265, 1184.0694444444443, N
426620, 1185.0555555555557, N
427004, 1186.1222222222223, N
427378, 1187.161111111111, N
427734, 1188.15, N
428093, 1189.1472222222221, N
428437, 1190.1027777777779, N
428796, 1191.1, N
429173, 1192.1472222222221, N
429554, 1193.2055555555555, N
429908, 1194.1888888888889, N
430258, 1195.161111111111, N
430623, 1196.175, N
430983, 1197.175, N
431354, 1198.2055555555555, N
431723, 1199.2305555555556, N
432069, 1200.1916666666666, N
432416, 1201.1555555555556, N
432756, 1202.1, N
433091, 1203.0305555555556, N
433453, 1204.036111111111, N
433815, 1205.0416666666667, N
434163, 1206.0083333333334, N
434498, 1206.9388888888889, N
434851, 1207.9194444444445, N
435217, 1208.9361111111111, N
435584, 1209.9555555555555, N
435957, 1210.9916666666666, N
436331, 1212.0305555555556, N
436675, 1212.986111111111, N
437018, 1213.9388888888889, N
437384, 1214.9555555555555, N
437767, 1216.0194444444444, N
438134, 1217.0388888888888, N
438481, 1218.0027777777777, N
438829, 1218.9694444444444, N
439175, 1219.9305555555557, N
439525, 1220.9027777777778, N
439877, 1221.8805555555555, N
440232, 1222.8666666666666, N
440583, 1223.8416666666667, N
440925, 1224.7916666666667, N
441254, 1225.7055555555555, N
441604, 1226.6777777777777, N
441953, 1227.6472222222221, N
442311, 1228.6416666666667, N
442650, 1229.5833333333333, N
442967, 1230.463888888889, N
443289, 1231.3583333333333, N
443607, 1232.2416666666666, N
443939, 1233.1638888888888, N
444298, 1234.161111111111, N
444646, 1235.1277777777777, N
444975, 1236.0416666666667, N
445306, 1236.9611111111112, N
445642, 1237.8944444444444, N
445996, 1238.8777777777777, N
446349, 1239.8583333333333, N
446713, 1240.8694444444445, N
447074, 1241.8722222222223, N
447418, 1242.8277777777778, N
447757, 1243.7694444444444, N
448111, 1244.7527777777777, N
448462, 1245.7277777777779, N
448826, 1246.7388888888888, N
449181, 1247.725, N
449515, 1248.6527777777778, N
449863, 1249.6194444444445, N
450212, 1250.588888888889, N
450555, 1251.5416666666667, N
450909, 1252.525, N
451253, 1253.4805555555556, N
451598, 1254.4388888888889, N
451939, 1255.3861111111112, N
452282, 1256.338888888889, N
452643, 1257.3416666666667, N
452999, 1258.3305555555555, N
453352, 1259.3111111111111, N
453694, 1260.2611111111112, N
454029, 1261.1916666666666, N
454377, 1262.1583333333333, N
454718, 1263.1055555555556, N
455085, 1264.125, N
455451, 1265.1416666666667, N
455801, 1266.1138888888888, N
456133, 1267.036111111111, N
456469, 1267.9694444444444, N
456816, 1268.9333333333334, N
457175, 1269.9305555555557, N
457518, 1270.8833333333334, N
457861, 1271.8361111111112, N
458210, 1272.8055555555557, N
458545, 1273.736111111111, N
458887, 1274.6861111111111, N
459251, 1275.6972222222223, N
459602, 1276.6722222222222, N
459960, 1277.6666666666667, N
460305, 1278.625, N
460628, 1279.5222222222221, N
460979, 1280.4972222222223, N
461330, 1281.4722222222222, N
461673, 1282.425, N
462019, 1283.3861111111112, N
462356, 1284.3222222222223, N
462691, 1285.2527777777777, N
463023, 1286.175, N
463379, 1287.1638888888888, N
463759, 1288.2194444444444, N
464115, 1289.2083333333333, N
464466, 1290.1833333333334, N
464800, 1291.111111111111, N
465147, 1292.075, N
465501, 1293.0583333333334, N
465865, 1294.0694444444443, N
466219, 1295.0527777777777, N
466556, 1295.9888888888888, N
466879, 1296.8861111111112, N
467207, 1297.7972222222222, N
467554, 1298.7611111111112, N
467904, 1299.7333333333333, N
468264, 1300.7333333333333, N
468610, 1301.6944444444443, N
468932, 1302.588888888889, N
469271, 1303.5305555555556, N
469613, 1304.4805555555556, N
469963, 1305.4527777777778, N
470328, 1306.4666666666667, N
470681, 1307.4472222222223, N
471032, 1308.4222222222222, N
471371, 1309.3638888888888, N
471713, 1310.3138888888889, N
472076, 1311.3222222222223, N
472438, 1312.3277777777778, N
472798, 1313.3277777777778, N
473149, 1314.3027777777777, N
473502, 1315.2833333333333, N
473856, 1316.2666666666667, N
474196, 1317.2111111111112, N
474556, 1318.2111111111112, N
474918, 1319.2166666666667, N
475262, 1320.1722222222222, N
475590, 1321.0833333333333, N
475929, 1322.025, N
476292, 1323.0333333333333, N
476652, 1324.0333333333333, N
477021, 1325.0583333333334, N
477370, 1326.0277777777778, N
477713, 1326.9805555555556, N
478041, 1327.8916666666667, N
478386, 1328.85, N
478748, 1329.8555555555556, N
479116, 1330.8777777777777, N
479462, 1331.838888888889, N
479807, 1332.7972222222222, N
480161, 1333.7805555555556, N
480518, 1334.7722222222221, N
480874, 1335.7611111111112, N
481250, 1336.8055555555557, N
481612, 1337.8111111111111, N
481947, 1338.7416666666666, N
482286, 1339.6833333333334, N
482627, 1340.6305555555555, N
482997, 1341.6583333333333, N
483342, 1342.6166666666666, N
483690, 1343.5833333333333, N
484031, 1344.5305555555556, N
484362, 1345.45, N
484703, 1346.3972222222221, N
485046, 1347.35, N
485406, 1348.35, N
485771, 1349.3638888888888, N
486125, 1350.3472222222222, N
486475, 1351.3194444444443, N
486836, 1352.3222222222223, N
487213, 1353.3694444444445, N
487596, 1354.4333333333334, N
487954, 1355.4277777777777, N
488304, 1356.4, N
488654, 1357.3722222222223, N
489005, 1358.3472222222222, N
489361, 1359.3361111111112, N
489719, 1360.3305555555555, N
490084, 1361.3444444444444, N
490432, 1362.3111111111111, N
490762, 1363.2277777777779, N
491102, 1364.1722222222222, N
491457, 1365.1583333333333, N
491814, 1366.15, N
492165, 1367.125, N
492495, 1368.0416666666667, N
492820, 1368.9444444444443, N
493147, 1369.8527777777779, N
493480, 1370.7777777777778, N
493820, 1371.7222222222222, N
494173, 1372.7027777777778, N
494511, 1373.6416666666667, N
494839, 1374.5527777777777, N
495168, 1375.4666666666667, N
495504, 1376.4, N
495853, 1377.3694444444445, N
496214, 1378.3722222222223, N
496575, 1379.375, N
496924, 1380.3444444444444, N
497243, 1381.2305555555556, N
497569, 1382.1361111111112, N
497902, 1383.0611111111111, N
498241, 1384.0027777777777, N
498575, 1384.9305555555557, N
498890, 1385.8055555555557, N
499190, 1386.638888888889, N
499509, 1387.525, N
499820, 1388.388888888889, N
500137, 1389.2694444444444, N
500463, 1390.175, N
500790, 1391.0833333333333, N
501117, 1391.9916666666666, N
501438, 1392.8833333333334, N
501761, 1393.7805555555556, N
502080, 1394.6666666666667, N
502427, 1395.6305555555555, N
502771, 1396.5861111111112, N
503105, 1397.513888888889, N
503420, 1398.388888888889, N
503723, 1399.2305555555556, N
504044, 1400.1222222222223, N
504377, 1401.0472222222222, N
504722, 1402.0055555555555, N
505088, 1403.0222222222221, N
505437, 1403.9916666666666, N
505768, 1404.911111111111, N
506086, 1405.7944444444445, N
506419, 1406.7194444444444, N
506767, 1407.6861111111111, N
507111, 1408.6416666666667, N
507444, 1409.5666666666666, N
507791, 1410.5305555555556, N
508133, 1411.4805555555556, N
508481, 1412.4472222222223, N
508849, 1413.4694444444444, N
509231, 1414.5305555555556, N
509607, 1415.575, N
509951, 1416.5305555555556, N
510301, 1417.5027777777777, N
510664, 1418.5111111111112, N
511036, 1419.5444444444445, N
511411, 1420.5861111111112, N
511771, 1421.5861111111112, N
512123, 1422.5638888888889, N
512468, 1423.5222222222221, N
512822, 1424.5055555555555, N
513190, 1425.5277777777778, N
513555, 1426.5416666666667, N
513910, 1427.5277777777778, N
514266, 1428.5166666666667, N
514613, 1429.4805555555556, N
514966, 1430.4611111111112, N
515333, 1431.4805555555556, N
515704, 1432.5111111111112, N
516083, 1433.5638888888889, N
516440, 1434.5555555555557, N
516790, 1435.5277777777778, N
517134, 1436.4833333333333, N
517503, 1437.5083333333334, N
517877, 1438.5472222222222, N
518234, 1439.5388888888888, N
518580, 1440.5, N
518932, 1441.4777777777779, N
519282, 1442.45, N
519643, 1443.4527777777778, N
520012, 1444.4777777777779, N
520384, 1445.5111111111112, N
520736, 1446.4888888888888, N
521078, 1447.4388888888889, N
521439, 1448.4416666666666, N
521812, 1449.4777777777779, N
522173, 1450.4805555555556, N
522538, 1451.4944444444445, N
522873, 1452.425, N
523219, 1453.3861111111112, N
523562, 1454.338888888889, N
523914, 1455.3166666666666, N
524261, 1456.2805555555556, N
524617, 1457.2694444444444, N
524966, 1458.2388888888888, N
525313, 1459.2027777777778, N
525653, 1460.1472222222221, N
526021, 1461.1694444444445, N
526400, 1462.2222222222222, N
526768, 1463.2444444444445, N
527128, 1464.2444444444445, N
527483, 1465.2305555555556, N
527825, 1466.1805555555557, N
528158, 1467.1055555555556, N
528506, 1468.0722222222223, N
528873, 1469.0916666666667, N
529224, 1470.0666666666666, N
529578, 1471.05, N
529942, 1472.0611111111111, N
530311, 1473.0861111111112, N
530688, 1474.1333333333334, N
531066, 1475.1833333333334, N
531430, 1476.1944444444443, N
531777, 1477.1583333333333, N
532014, 1477.8166666666666, A
532473, 1479.0916666666667, N
532864, 1480.1777777777777, N
533236, 1481.2111111111112, N
533598, 1482.2166666666667, N
533954, 1483.2055555555555, N
534315, 1484.2083333333333, N
534686, 1485.2388888888888, N
535057, 1486.2694444444444, N
535419, 1487.275, N
535769, 1488.2472222222223, N
536117, 1489.213888888889, N
536481, 1490.225, N
536872, 1491.3111111111111, N
537271, 1492.4194444444445, N
537657, 1493.4916666666666, N
538040, 1494.5555555555557, N
538400, 1495.5555555555557, N
538748, 1496.5222222222221, N
539124, 1497.5666666666666, N
539505, 1498.625, N
539876, 1499.6555555555556, N
540217, 1500.6027777777779, N
540569, 1501.5805555555555, N
540936, 1502.6, N
541305, 1503.625, N
541665, 1504.625, N
542032, 1505.6444444444444, N
542397, 1506.6583333333333, N
542740, 1507.611111111111, N
543086, 1508.5722222222223, N
543467, 1509.6305555555555, N
543847, 1510.6861111111111, N
544204, 1511.6777777777777, N
544556, 1512.6555555555556, N
544915, 1513.6527777777778, N
545285, 1514.6805555555557, N
545656, 1515.7111111111112, N
546035, 1516.763888888889, N
546413, 1517.8138888888889, N
546756, 1518.7666666666667, N
547096, 1519.7111111111112, N
547455, 1520.7083333333333, N
547837, 1521.7694444444444, N
548210, 1522.8055555555557, N
548575, 1523.8194444444443, N
548942, 1524.838888888889, N
549304, 1525.8444444444444, N
549662, 1526.838888888889, N
550048, 1527.911111111111, N
550432, 1528.9777777777779, N
550798, 1529.9944444444445, N
551142, 1530.95, N
551484, 1531.9, N
551842, 1532.8944444444444, N
552204, 1533.9, N
552571, 1534.9194444444445, N
552931, 1535.9194444444445, N
553272, 1536.8666666666666, N
553625, 1537.8472222222222, N
553987, 1538.8527777777779, N
554355, 1539.875, N
554725, 1540.9027777777778, N
555091, 1541.9194444444445, N
555438, 1542.8833333333334, N
555773, 1543.8138888888889, N
556137, 1544.825, N
556511, 1545.8638888888888, N
556872, 1546.8666666666666, N
557232, 1547.8666666666666, N
557592, 1548.8666666666666, N
557943, 1549.8416666666667, N
558297, 1550.825, N
558674, 1551.8722222222223, N
559054, 1552.9277777777777, N
559406, 1553.9055555555556, N
559749, 1554.8583333333333, N
560112, 1555.8666666666666, N
560470, 1556.861111111111, N
560836, 1557.8777777777777, N
561210, 1558.9166666666667, N
561561, 1559.8916666666667, N
561883, 1560.786111111111, N
562190, 1561.638888888889, N
562516, 1562.5444444444445, N
562884, 1563.5666666666666, N
563256, 1564.6, N
563612, 1565.588888888889, N
563967, 1566.575, N
564331, 1567.5861111111112, N
564686, 1568.5722222222223, N
565051, 1569.5861111111112, N
565437, 1570.6583333333333, N
565819, 1571.7194444444444, N
566168, 1572.6888888888889, N
566526, 1573.6833333333334, N
566897, 1574.713888888889, N
567275, 1575.763888888889, N
567646, 1576.7944444444445, N
568016, 1577.8222222222223, N
568385, 1578.8472222222222, N
568731, 1579.8083333333334, N
569085, 1580.7916666666667, N
569465, 1581.8472222222222, N
569844, 1582.9, N
570199, 1583.8861111111112, N
570549, 1584.8583333333333, N
570909, 1585.8583333333333, N
571273, 1586.8694444444445, N
571631, 1587.8638888888888, N
572003, 1588.8972222222221, N
572369, 1589.9138888888888, N
572720, 1590.888888888889, N
573059, 1591.8305555555555, N
573415, 1592.8194444444443, N
573802, 1593.8944444444444, N
574172, 1594.9222222222222, N
574529, 1595.9138888888888, N
574879, 1596.8861111111112, N
575217, 1597.825, N
575558, 1598.7722222222221, N
575911, 1599.7527777777777, N
576277, 1600.7694444444444, N
576642, 1601.7833333333333, N
576984, 1602.7333333333333, N
577332, 1603.7, N
577695, 1604.7083333333333, N
578078, 1605.7722222222221, N
578462, 1606.838888888889, N
578831, 1607.8638888888888, N
579193, 1608.8694444444445, N
579550, 1609.861111111111, N
579895, 1610.8194444444443, N
580267, 1611.8527777777779, N
580648, 1612.911111111111, N
581023, 1613.9527777777778, N
581380, 1614.9444444444443, N
581737, 1615.9361111111111, N
582109, 1616.9694444444444, N
582487, 1618.0194444444444, N
582861, 1619.0583333333334, N
583231, 1620.0861111111112, N
583586, 1621.0722222222223, N
583950, 1622.0833333333333, N
584307, 1623.075, N
584682, 1624.1166666666666, N
585061, 1625.1694444444445, N
585417, 1626.1583333333333, N
585760, 1627.111111111111, N
586108, 1628.0777777777778, N
586479, 1629.1083333333333, N
586853, 1630.1472222222221, N
587219, 1631.1638888888888, N
587589, 1632.1916666666666, N
587925, 1633.125, N
588269, 1634.0805555555555, N
588628, 1635.0777777777778, N
589007, 1636.1305555555555, N
589371, 1637.1416666666667, N
589727, 1638.1305555555555, N
590080, 1639.111111111111, N
590436, 1640.1, N
590788, 1641.0777777777778, N
591158, 1642.1055555555556, N
591531, 1643.1416666666667, N
591870, 1644.0833333333333, N
592201, 1645.0027777777777, N
592533, 1645.925, N
592861, 1646.8361111111112, N
593205, 1647.7916666666667, N
593543, 1648.7305555555556, N
593877, 1649.6583333333333, N
594215, 1650.5972222222222, N
594551, 1651.5305555555556, N
594905, 1652.513888888889, N
595263, 1653.5083333333334, N
595637, 1654.5472222222222, N
596014, 1655.5944444444444, N
596367, 1656.575, N
596717, 1657.5472222222222, N
597079, 1658.5527777777777, N
597466, 1659.6277777777777, N
597837, 1660.6583333333333, N
598206, 1661.6833333333334, N
598572, 1662.7, N
598911, 1663.6416666666667, N
599258, 1664.6055555555556, N
599625, 1665.625, N
599989, 1666.6361111111112, N
600348, 1667.6333333333334, N
600693, 1668.5916666666667, N
601042, 1669.5611111111111, N
601395, 1670.5416666666667, N
601762, 1671.5611111111111, N
602126, 1672.5722222222223, N
602483, 1673.5638888888889, N
602836, 1674.5444444444445, N
603172, 1675.4777777777779, N
603506, 1676.4055555555556, N
603864, 1677.4, N
604228, 1678.411111111111, N
604572, 1679.3666666666666, N
604907, 1680.2972222222222, N
605249, 1681.2472222222223, N
605581, 1682.1694444444445, N
605936, 1683.1555555555556, N
606300, 1684.1666666666667, N
606674, 1685.2055555555555, N
607017, 1686.1583333333333, N
607352, 1687.088888888889, N
607685, 1688.013888888889, N
608015, 1688.9305555555557, N
608357, 1689.8805555555555, N
608711, 1690.8638888888888, N
609058, 1691.8277777777778, N
609397, 1692.7694444444444, N
609750, 1693.75, N
610113, 1694.7583333333334, N
610499, 1695.8305555555555, N
610880, 1696.888888888889, N
611262, 1697.95, N
611616, 1698.9333333333334, N
611966, 1699.9055555555556, N
612339, 1700.9416666666666, N
612708, 1701.9666666666667, N
613067, 1702.963888888889, N
613422, 1703.95, N
613774, 1704.9277777777777, N
614127, 1705.9083333333333, N
614489, 1706.9138888888888, N
614852, 1707.9222222222222, N
615229, 1708.9694444444444, N
615589, 1709.9694444444444, N
615934, 1710.9277777777777, N
616288, 1711.911111111111, N
616655, 1712.9305555555557, N
617034, 1713.9833333333333, N
617392, 1714.9777777777779, N
617763, 1716.0083333333334, N
618119, 1716.9972222222223, N
618468, 1717.9666666666667, N
618824, 1718.9555555555555, N
619199, 1719.9972222222223, N
619583, 1721.0638888888889, N
619938, 1722.05, N
620282, 1723.0055555555555, N
620647, 1724.0194444444444, N
621010, 1725.0277777777778, N
621379, 1726.0527777777777, N
621750, 1727.0833333333333, N
622122, 1728.1166666666666, N
622459, 1729.0527777777777, N
622797, 1729.9916666666666, N
623161, 1731.0027777777777, N
623528, 1732.0222222222221, N
623871, 1732.975, N
624214, 1733.9277777777777, N
624552, 1734.8666666666666, N
624890, 1735.8055555555557, N
625228, 1736.7444444444445, N
625590, 1737.75, N
625971, 1738.8083333333334, N
626331, 1739.8083333333334, N
626674, 1740.7611111111112, N
627022, 1741.7277777777779, N
627373, 1742.7027777777778, N
627725, 1743.6805555555557, N
628081, 1744.6694444444445, N
628433, 1745.6472222222221, N
628784, 1746.6222222222223, N
629130, 1747.5833333333333, N
629484, 1748.5666666666666, N
629862, 1749.6166666666666, N
630244, 1750.6777777777777, N
630625, 1751.736111111111, N
630982, 1752.7277777777779, N
631340, 1753.7222222222222, N
631695, 1754.7083333333333, N
632064, 1755.7333333333333, N
632444, 1756.7888888888888, N
632812, 1757.8111111111111, N
633172, 1758.8111111111111, N
633526, 1759.7944444444445, N
633889, 1760.8027777777777, N
634278, 1761.8833333333334, N
634648, 1762.911111111111, N
635009, 1763.9138888888888, N
635365, 1764.9027777777778, N
635728, 1765.911111111111, N
636099, 1766.9416666666666, N
636482, 1768.0055555555555, N
636856, 1769.0444444444445, N
637216, 1770.0444444444445, N
637555, 1770.986111111111, N
637896, 1771.9333333333334, N
638239, 1772.8861111111112, N
638589, 1773.8583333333333, N
638918, 1774.7722222222221, N
639254, 1775.7055555555555, N
639594, 1776.65, N
639946, 1777.6277777777777, N
640287, 1778.575, N
640649, 1779.5805555555555, N
641024, 1780.6222222222223, N
641396, 1781.6555555555556, N
641737, 1782.6027777777779, N
642072, 1783.5333333333333, N
642437, 1784.5472222222222, N
642812, 1785.588888888889, N
643177, 1786.6027777777779, N
643542, 1787.6166666666666, N
643900, 1788.611111111111, N
644267, 1789.6305555555555, N
644629, 1790.6361111111112, N
645013, 1791.7027777777778, N
645395, 1792.763888888889, N
645749, 1793.7472222222223, N
646099, 1794.7194444444444, N
646451, 1795.6972222222223, N
646821, 1796.725, N
647195, 1797.763888888889, N
647569, 1798.8027777777777, N
647934, 1799.8166666666666, N
648291, 1800.8083333333334, N
648647, 1801.7972222222222, N
649004, 1802.7888888888888, N
649372, 1803.8111111111111, N
649751, 1804.8638888888888, N
