68, 0.18888888888888888, +
136, 0.37777777777777777, /
410, 1.1388888888888888, /
697, 1.9361111111111111, /
989, 2.7472222222222222, /
1305, 3.625, /
1614, 4.483333333333333, /
1911, 5.308333333333334, /
2201, 6.113888888888889, /
2489, 6.913888888888889, /
2781, 7.725, /
3072, 8.533333333333333, /
3373, 9.369444444444444, /
3692, 10.255555555555556, /
3998, 11.105555555555556, /
4289, 11.91388888888889, /
4579, 12.719444444444445, /
4866, 13.516666666666667, /
5164, 14.344444444444445, /
5466, 15.183333333333334, /
5768, 16.022222222222222, /
6084, 16.9, /
6380, 17.72222222222222, /
6665, 18.51388888888889, /
6951, 19.308333333333334, /
7242, 20.116666666666667, /
7549, 20.969444444444445, /
7857, 21.825, /
8159, 22.663888888888888, /
8473, 23.53611111111111, /
8763, 24.341666666666665, /
9043, 25.119444444444444, /
9333, 25.925, /
9630, 26.75, /
9940, 27.61111111111111, /
10245, 28.458333333333332, /
10543, 29.28611111111111, /
10845, 30.125, /
11152, 30.977777777777778, /
11414, 31.705555555555556, /
11710, 32.52777777777778, /
12018, 33.38333333333333, /
12330, 34.25, /
12632, 35.08888888888889, /
12926, 35.90555555555556, /
13223, 36.730555555555554, /
13511, 37.53055555555556, /
13797, 38.325, /
14098, 39.16111111111111, /
14408, 40.022222222222226, /
14718, 40.88333333333333, /
15013, 41.702777777777776, /
15301, 42.50277777777778, /
15620, 43.388888888888886, /
15890, 44.138888888888886, /
16183, 44.952777777777776, /
16492, 45.81111111111111, /
16803, 46.675, /
17108, 47.522222222222226, /
17393, 48.31388888888889, /
17680, 49.111111111111114, /
17979, 49.94166666666667, /
18274, 50.76111111111111, /
18573, 51.59166666666667, /
18879, 52.44166666666667, /
19184, 53.28888888888889, /
19480, 54.111111111111114, /
19765, 54.90277777777778, /
20055, 55.708333333333336, /
20359, 56.55277777777778, /
20663, 57.397222222222226, /
20965, 58.236111111111114, /
21268, 59.077777777777776, /
21567, 59.90833333333333, /
21857, 60.71388888888889, /
22143, 61.50833333333333, /
22434, 62.31666666666667, /
22744, 63.17777777777778, /
23050, 64.02777777777777, /
23350, 64.86111111111111, /
23647, 65.68611111111112, /
23944, 66.5111111111111, /
24234, 67.31666666666666, /
24522, 68.11666666666666, /
24825, 68.95833333333333, /
25138, 69.82777777777778, /
25441, 70.66944444444445, /
25737, 71.49166666666666, /
26024, 72.28888888888889, /
26317, 73.10277777777777, /
26607, 73.90833333333333, /
26899, 74.71944444444445, /
27245, 75.68055555555556, /
27522, 76.45, f
27821, 77.28055555555555, f
28113, 78.09166666666667, f
28407, 78.90833333333333, f
28701, 79.725, f
28990, 80.52777777777777, f
29133, 80.925, +
29276, 81.32222222222222, N
29582, 82.17222222222222, N
29880, 83.0, N
30161, 83.78055555555555, N
30440, 84.55555555555556, N
30716, 85.32222222222222, N
30999, 86.10833333333333, N
31289, 86.91388888888889, N
31586, 87.7388888888889, N
31882, 88.56111111111112, N
32180, 89.38888888888889, N
32466, 90.18333333333334, N
32734, 90.92777777777778, N
33010, 91.69444444444444, N
33297, 92.49166666666666, N
33595, 93.31944444444444, N
33883, 94.11944444444444, N
34058, 94.60555555555555, V
34216, 95.04444444444445, +
34375, 95.48611111111111, /
34667, 96.29722222222222, /
34950, 97.08333333333333, /
35238, 97.88333333333334, /
35536, 98.71111111111111, /
35848, 99.57777777777778, /
36153, 100.425, f
36452, 101.25555555555556, f
36755, 102.09722222222223, f
37043, 102.89722222222223, f
37326, 103.68333333333334, f
37637, 104.54722222222222, f
37927, 105.35277777777777, f
38240, 106.22222222222223, f
38540, 107.05555555555556, f
38682, 107.45, +
38824, 107.84444444444445, N
39116, 108.65555555555555, N
39401, 109.44722222222222, N
39683, 110.23055555555555, N
39977, 111.04722222222222, N
40280, 111.88888888888889, N
40589, 112.74722222222222, N
40880, 113.55555555555556, N
41157, 114.325, N
41449, 115.1361111111111, f
41732, 115.92222222222222, N
42014, 116.70555555555555, N
42316, 117.54444444444445, f
42616, 118.37777777777778, N
42916, 119.21111111111111, N
43203, 120.00833333333334, N
43481, 120.78055555555555, N
43767, 121.575, N
44056, 122.37777777777778, N
44351, 123.19722222222222, N
44650, 124.02777777777777, N
44945, 124.84722222222223, N
45244, 125.67777777777778, N
45521, 126.44722222222222, N
45799, 127.21944444444445, N
46088, 128.0222222222222, N
46380, 128.83333333333334, N
46679, 129.6638888888889, N
46978, 130.49444444444444, N
47268, 131.3, N
47561, 132.11388888888888, N
47841, 132.89166666666668, N
48116, 133.65555555555557, N
48405, 134.45833333333334, N
48709, 135.30277777777778, N
49004, 136.12222222222223, N
49293, 136.925, N
49579, 137.71944444444443, N
49858, 138.49444444444444, N
50143, 139.2861111111111, N
50419, 140.05277777777778, N
50701, 140.8361111111111, N
51013, 141.70277777777778, N
51313, 142.5361111111111, N
51597, 143.325, N
51882, 144.11666666666667, N
52161, 144.89166666666668, N
52441, 145.66944444444445, N
52724, 146.45555555555555, N
53012, 147.25555555555556, N
53318, 148.10555555555555, N
53615, 148.93055555555554, N
53893, 149.70277777777778, N
54174, 150.48333333333332, N
54451, 151.25277777777777, N
54733, 152.0361111111111, N
55019, 152.83055555555555, N
55315, 153.65277777777777, N
55618, 154.49444444444444, N
55911, 155.30833333333334, N
56192, 156.0888888888889, N
56469, 156.85833333333332, N
56743, 157.61944444444444, N
57035, 158.43055555555554, N
57329, 159.24722222222223, N
57621, 160.05833333333334, N
57922, 160.89444444444445, N
58215, 161.70833333333334, N
58491, 162.475, N
58766, 163.23888888888888, N
59044, 164.01111111111112, N
59336, 164.82222222222222, N
59638, 165.6611111111111, N
59933, 166.48055555555555, N
60224, 167.2888888888889, N
60515, 168.09722222222223, N
60791, 168.86388888888888, N
61062, 169.61666666666667, N
61349, 170.4138888888889, N
61647, 171.24166666666667, N
61947, 172.075, N
62242, 172.89444444444445, N
62531, 173.69722222222222, N
62825, 174.51388888888889, f
62969, 174.9138888888889, +
63114, 175.31666666666666, /
63399, 176.10833333333332, /
63698, 176.9388888888889, /
64010, 177.80555555555554, /
64322, 178.67222222222222, /
64620, 179.5, /
64907, 180.29722222222222, /
65204, 181.12222222222223, /
65494, 181.92777777777778, /
65781, 182.725, /
66085, 183.56944444444446, /
66396, 184.43333333333334, /
66702, 185.28333333333333, /
66990, 186.08333333333334, /
67280, 186.88888888888889, /
67578, 187.71666666666667, /
67872, 188.53333333333333, /
68172, 189.36666666666667, /
68479, 190.21944444444443, /
68788, 191.07777777777778, /
69084, 191.9, /
69367, 192.6861111111111, /
69656, 193.48888888888888, /
69954, 194.31666666666666, /
70253, 195.1472222222222, /
70557, 195.99166666666667, /
70861, 196.8361111111111, /
71164, 197.67777777777778, /
71457, 198.49166666666667, /
71743, 199.2861111111111, /
72036, 200.1, /
72343, 200.95277777777778, /
72668, 201.85555555555555, /
72950, 202.63888888888889, /
73248, 203.46666666666667, /
73544, 204.2888888888889, /
73832, 205.0888888888889, /
74118, 205.88333333333333, /
74418, 206.71666666666667, /
74730, 207.58333333333334, /
75033, 208.425, /
75333, 209.25833333333333, /
75627, 210.075, /
75920, 210.88888888888889, /
76210, 211.69444444444446, /
76500, 212.5, /
76810, 213.36111111111111, /
77120, 214.22222222222223, /
77420, 215.05555555555554, /
77714, 215.87222222222223, /
78001, 216.66944444444445, /
78294, 217.48333333333332, /
78585, 218.29166666666666, /
78884, 219.12222222222223, /
79200, 220.0, /
79508, 220.85555555555555, /
79804, 221.67777777777778, /
80094, 222.48333333333332, /
80380, 223.27777777777777, /
80678, 224.10555555555555, /
80976, 224.93333333333334, /
81278, 225.7722222222222, /
81592, 226.64444444444445, /
81895, 227.48611111111111, /
82179, 228.275, /
82466, 229.07222222222222, /
82756, 229.87777777777777, /
83061, 230.725, /
83366, 231.57222222222222, /
83669, 232.4138888888889, /
83983, 233.2861111111111, /
84278, 234.10555555555555, /
84559, 234.88611111111112, /
84848, 235.6888888888889, /
85142, 236.50555555555556, /
85452, 237.36666666666667, /
85756, 238.2111111111111, /
86055, 239.04166666666666, /
86359, 239.88611111111112, /
86650, 240.69444444444446, /
86933, 241.48055555555555, /
87227, 242.29722222222222, /
87531, 243.14166666666668, /
87846, 244.01666666666668, /
88150, 244.86111111111111, /
88443, 245.675, /
88741, 246.50277777777777, /
89029, 247.30277777777778, /
89314, 248.09444444444443, /
89612, 248.92222222222222, /
89919, 249.775, /
90233, 250.6472222222222, /
90529, 251.46944444444443, /
90815, 252.26388888888889, /
91114, 253.09444444444443, /
91406, 253.90555555555557, /
91697, 254.7138888888889, /
92004, 255.56666666666666, /
92310, 256.4166666666667, /
92619, 257.275, /
92908, 258.0777777777778, /
93190, 258.8611111111111, /
93489, 259.69166666666666, /
93782, 260.50555555555553, /
94079, 261.3305555555556, /
94386, 262.18333333333334, /
94692, 263.03333333333336, /
94992, 263.8666666666667, /
95280, 264.6666666666667, /
95566, 265.4611111111111, /
95868, 266.3, /
96171, 267.14166666666665, /
96472, 267.97777777777776, /
96775, 268.81944444444446, /
97077, 269.65833333333336, /
97368, 270.46666666666664, /
97653, 271.2583333333333, /
97941, 272.05833333333334, /
98249, 272.9138888888889, f
98559, 273.775, f
98856, 274.6, f
99155, 275.43055555555554, /
99473, 276.31388888888887, /
99743, 277.06388888888887, /
100029, 277.85833333333335, /
100328, 278.68888888888887, /
100641, 279.55833333333334, /
100945, 280.40277777777777, /
101242, 281.22777777777776, /
101533, 282.0361111111111, /
101824, 282.84444444444443, /
102113, 283.64722222222224, /
102404, 284.4555555555556, /
102712, 285.31111111111113, /
103025, 286.18055555555554, /
103327, 287.01944444444445, /
103622, 287.8388888888889, /
103910, 288.6388888888889, /
104203, 289.4527777777778, /
104496, 290.26666666666665, /
104795, 291.09722222222223, /
105106, 291.9611111111111, /
105415, 292.81944444444446, /
105709, 293.6361111111111, /
105995, 294.43055555555554, /
106281, 295.225, f
106578, 296.05, f
106880, 296.8888888888889, f
107184, 297.73333333333335, /
107497, 298.60277777777776, /
107802, 299.45, /
108088, 300.24444444444447, /
108373, 301.0361111111111, /
108663, 301.84166666666664, /
108964, 302.6777777777778, /
109268, 303.52222222222224, /
109571, 304.3638888888889, /
109881, 305.225, /
110174, 306.0388888888889, /
110457, 306.825, /
110748, 307.6333333333333, /
111042, 308.45, /
111355, 309.31944444444446, /
111662, 310.1722222222222, /
111962, 311.00555555555553, /
112265, 311.84722222222223, /
112555, 312.65277777777777, /
112838, 313.43888888888887, /
113130, 314.25, /
113430, 315.0833333333333, /
113745, 315.9583333333333, /
114050, 316.80555555555554, /
114341, 317.6138888888889, f
114639, 318.44166666666666, f
114931, 319.2527777777778, f
115235, 320.09722222222223, f
115535, 320.93055555555554, f
115841, 321.78055555555557, f
116139, 322.60833333333335, /
116437, 323.43611111111113, /
116721, 324.225, /
117018, 325.05, /
117309, 325.85833333333335, /
117600, 326.6666666666667, /
117906, 327.51666666666665, /
118214, 328.3722222222222, /
118521, 329.225, /
118811, 330.03055555555557, /
119095, 330.81944444444446, /
119416, 331.7111111111111, /
119691, 332.475, /
119992, 333.31111111111113, /
120298, 334.1611111111111, /
120603, 335.0083333333333, /
120904, 335.84444444444443, /
121189, 336.6361111111111, /
121471, 337.4194444444444, /
121773, 338.2583333333333, /
122075, 339.09722222222223, /
122380, 339.94444444444446, /
122684, 340.7888888888889, /
122983, 341.61944444444447, /
123281, 342.4472222222222, /
123586, 343.2944444444444, /
123853, 344.0361111111111, /
124163, 344.89722222222224, /
124469, 345.7472222222222, /
124767, 346.575, /
125066, 347.40555555555557, /
125357, 348.2138888888889, /
125648, 349.02222222222224, /
125935, 349.81944444444446, /
126229, 350.6361111111111, /
126546, 351.51666666666665, /
126853, 352.36944444444447, /
127150, 353.19444444444446, /
127444, 354.0111111111111, /
127735, 354.81944444444446, /
128025, 355.625, /
128317, 356.43611111111113, /
128621, 357.28055555555557, /
128935, 358.15277777777777, /
129239, 358.9972222222222, /
129528, 359.8, /
129814, 360.59444444444443, /
130106, 361.40555555555557, /
130401, 362.225, /
130701, 363.05833333333334, /
131011, 363.9194444444444, /
131325, 364.7916666666667, /
131623, 365.61944444444447, /
131907, 366.40833333333336, /
132192, 367.2, /
132487, 368.01944444444445, /
132787, 368.85277777777776, /
133089, 369.69166666666666, /
133399, 370.5527777777778, /
133706, 371.40555555555557, /
133992, 372.2, /
134276, 372.9888888888889, /
134566, 373.7944444444444, /
134868, 374.6333333333333, /
135176, 375.4888888888889, /
135479, 376.3305555555556, /
135787, 377.18611111111113, /
136084, 378.0111111111111, /
136366, 378.7944444444444, /
136653, 379.59166666666664, /
136945, 380.40277777777777, /
137254, 381.2611111111111, /
137563, 382.11944444444447, /
137886, 383.01666666666665, /
138164, 383.7888888888889, /
138456, 384.6, /
138742, 385.39444444444445, /
139033, 386.2027777777778, /
139336, 387.0444444444444, /
139653, 387.925, /
139958, 388.77222222222224, /
140251, 389.5861111111111, /
140546, 390.40555555555557, /
140857, 391.26944444444445, /
141120, 392.0, /
141417, 392.825, /
141724, 393.6777777777778, /
142036, 394.5444444444444, /
142336, 395.3777777777778, /
142623, 396.175, /
142920, 397.0, /
143211, 397.80833333333334, /
143505, 398.625, /
143812, 399.47777777777776, /
144119, 400.3305555555556, /
144428, 401.18888888888887, /
144718, 401.99444444444447, /
145001, 402.78055555555557, /
145297, 403.60277777777776, /
145592, 404.4222222222222, /
145891, 405.2527777777778, /
146201, 406.1138888888889, /
146506, 406.9611111111111, /
146831, 407.8638888888889, /
147098, 408.60555555555555, /
147380, 409.3888888888889, /
147683, 410.23055555555555, /
147987, 411.075, /
148288, 411.9111111111111, /
148594, 412.7611111111111, /
148892, 413.5888888888889, /
149186, 414.40555555555557, /
149470, 415.19444444444446, /
149755, 415.9861111111111, /
150066, 416.85, /
150375, 417.7083333333333, /
150677, 418.5472222222222, /
150978, 419.3833333333333, /
151271, 420.1972222222222, /
151564, 421.0111111111111, /
151849, 421.8027777777778, /
152142, 422.6166666666667, /
152458, 423.49444444444447, /
152765, 424.34722222222223, /
153062, 425.1722222222222, /
153353, 425.98055555555555, /
153640, 426.77777777777777, /
153934, 427.59444444444443, /
154226, 428.40555555555557, /
154528, 429.24444444444447, /
154848, 430.1333333333333, /
155153, 430.98055555555555, /
155444, 431.7888888888889, /
155730, 432.5833333333333, /
156020, 433.3888888888889, /
156317, 434.2138888888889, /
156615, 435.0416666666667, /
156921, 435.89166666666665, /
157257, 436.825, /
157532, 437.5888888888889, /
157813, 438.36944444444447, /
158099, 439.1638888888889, /
158394, 439.98333333333335, /
158696, 440.8222222222222, /
159002, 441.6722222222222, /
159310, 442.52777777777777, /
159618, 443.3833333333333, /
159905, 444.18055555555554, /
160188, 444.96666666666664, /
160476, 445.76666666666665, /
160779, 446.60833333333335, /
161084, 447.4555555555556, /
161387, 448.2972222222222, /
161694, 449.15, /
161990, 449.97222222222223, /
162276, 450.76666666666665, /
162563, 451.56388888888887, /
162857, 452.38055555555553, /
163170, 453.25, /
163478, 454.10555555555555, /
163777, 454.93611111111113, /
164078, 455.77222222222224, /
164370, 456.5833333333333, /
164653, 457.36944444444447, /
164942, 458.1722222222222, /
165242, 459.00555555555553, /
165556, 459.8777777777778, /
165861, 460.725, /
166153, 461.5361111111111, /
166453, 462.36944444444447, /
166745, 463.18055555555554, /
167031, 463.975, /
167331, 464.80833333333334, /
167638, 465.6611111111111, /
167949, 466.525, /
168247, 467.35277777777776, /
168532, 468.14444444444445, /
168827, 468.9638888888889, /
169118, 469.77222222222224, /
169408, 470.5777777777778, /
169715, 471.43055555555554, /
170021, 472.28055555555557, /
170332, 473.14444444444445, /
170625, 473.9583333333333, /
170908, 474.74444444444447, /
171207, 475.575, /
171503, 476.39722222222224, /
171802, 477.22777777777776, /
172109, 478.0805555555556, /
172413, 478.925, /
172716, 479.76666666666665, /
173001, 480.55833333333334, /
173283, 481.34166666666664, /
173585, 482.18055555555554, /
173887, 483.01944444444445, /
174188, 483.85555555555555, /
174495, 484.7083333333333, /
174795, 485.5416666666667, /
175090, 486.3611111111111, /
175377, 487.15833333333336, /
175662, 487.95, /
175971, 488.80833333333334, /
176277, 489.65833333333336, /
176577, 490.4916666666667, /
176878, 491.3277777777778, /
177170, 492.1388888888889, /
177461, 492.9472222222222, /
177748, 493.74444444444447, /
178041, 494.55833333333334, /
178358, 495.43888888888887, /
178667, 496.2972222222222, /
178966, 497.1277777777778, /
179260, 497.94444444444446, /
179550, 498.75, /
179842, 499.56111111111113, /
180133, 500.36944444444447, /
180434, 501.2055555555556, /
180751, 502.0861111111111, /
181056, 502.93333333333334, /
181343, 503.73055555555555, /
181631, 504.53055555555557, /
181923, 505.34166666666664, /
182217, 506.15833333333336, /
182516, 506.9888888888889, /
182828, 507.85555555555555, /
183143, 508.73055555555555, /
183440, 509.55555555555554, /
183724, 510.34444444444443, /
184010, 511.1388888888889, /
184304, 511.9555555555556, /
184603, 512.7861111111112, /
184905, 513.625, /
185215, 514.4861111111111, /
185542, 515.3944444444444, /
185810, 516.1388888888889, /
186095, 516.9305555555555, /
186384, 517.7333333333333, /
186687, 518.575, /
186995, 519.4305555555555, /
187299, 520.275, /
187606, 521.1277777777777, /
187904, 521.9555555555555, /
188206, 522.7944444444445, /
188472, 523.5333333333333, /
188763, 524.3416666666667, /
189073, 525.2027777777778, /
189382, 526.0611111111111, /
189681, 526.8916666666667, /
189984, 527.7333333333333, /
190277, 528.5472222222222, /
190561, 529.3361111111111, /
190852, 530.1444444444444, /
191155, 530.9861111111111, /
191468, 531.8555555555556, /
191773, 532.7027777777778, /
192065, 533.5138888888889, /
192362, 534.3388888888888, /
192650, 535.1388888888889, /
192934, 535.9277777777778, /
193232, 536.7555555555556, /
193539, 537.6083333333333, /
193853, 538.4805555555556, /
194152, 539.3111111111111, /
194440, 540.1111111111111, /
194737, 540.9361111111111, /
195028, 541.7444444444444, /
195320, 542.5555555555555, /
195626, 543.4055555555556, /
195933, 544.2583333333333, /
196243, 545.1194444444444, /
196534, 545.9277777777778, /
196813, 546.7027777777778, /
197111, 547.5305555555556, /
197407, 548.3527777777778, /
197704, 549.1777777777778, /
198012, 550.0333333333333, /
198318, 550.8833333333333, /
198622, 551.7277777777778, /
198908, 552.5222222222222, /
199191, 553.3083333333333, /
199494, 554.15, /
199795, 554.9861111111111, /
200096, 555.8222222222222, /
200400, 556.6666666666666, /
200700, 557.5, /
200992, 558.3111111111111, /
201277, 559.1027777777778, /
201565, 559.9027777777778, /
201873, 560.7583333333333, /
202180, 561.6111111111111, /
202482, 562.45, /
202783, 563.2861111111112, /
203079, 564.1083333333333, /
203369, 564.9138888888889, /
203656, 565.7111111111111, /
203952, 566.5333333333333, /
204265, 567.4027777777778, /
204570, 568.25, /
204868, 569.0777777777778, /
205159, 569.8861111111111, /
205452, 570.7, /
205744, 571.5111111111111, /
206035, 572.3194444444445, /
206342, 573.1722222222222, /
206658, 574.05, /
206981, 574.9472222222222, /
207253, 575.7027777777778, /
207541, 576.5027777777777, /
207743, 577.0638888888889, V
208044, 577.9, /
208339, 578.7194444444444, /
208667, 579.6305555555556, /
208960, 580.4444444444445, /
209260, 581.2777777777778, /
209546, 582.0722222222222, /
209834, 582.8722222222223, /
210127, 583.6861111111111, /
210427, 584.5194444444444, /
210730, 585.3611111111111, /
211039, 586.2194444444444, /
211349, 587.0805555555555, /
211643, 587.8972222222222, /
211925, 588.6805555555555, /
212211, 589.475, /
212509, 590.3027777777778, /
212812, 591.1444444444444, /
213117, 591.9916666666667, /
213424, 592.8444444444444, /
213729, 593.6916666666667, /
214017, 594.4916666666667, /
214301, 595.2805555555556, /
214591, 596.0861111111111, /
214899, 596.9416666666667, /
215208, 597.8, /
215509, 598.6361111111111, /
215814, 599.4833333333333, /
216108, 600.3, /
216391, 601.0861111111111, /
216678, 601.8833333333333, /
216974, 602.7055555555555, /
217286, 603.5722222222222, /
217594, 604.4277777777778, /
217892, 605.2555555555556, /
218191, 606.0861111111111, /
218483, 606.8972222222222, /
218767, 607.6861111111111, /
219063, 608.5083333333333, /
219368, 609.3555555555556, /
219680, 610.2222222222222, /
219985, 611.0694444444445, /
220274, 611.8722222222223, /
220566, 612.6833333333333, /
220856, 613.4888888888889, /
221145, 614.2916666666666, /
221448, 615.1333333333333, /
221756, 615.9888888888889, /
222070, 616.8611111111111, /
222367, 617.6861111111111, /
222651, 618.475, /
222948, 619.3, /
223240, 620.1111111111111, /
223535, 620.9305555555555, /
223842, 621.7833333333333, /
224148, 622.6333333333333, /
224451, 623.475, /
224739, 624.275, /
225020, 625.0555555555555, /
225321, 625.8916666666667, /
225619, 626.7194444444444, /
225922, 627.5611111111111, /
226231, 628.4194444444445, /
226534, 629.2611111111111, /
226831, 630.0861111111111, /
227115, 630.875, /
227399, 631.6638888888889, /
227705, 632.5138888888889, /
228009, 633.3583333333333, /
228311, 634.1972222222222, /
228614, 635.0388888888889, /
228909, 635.8583333333333, /
229201, 636.6694444444445, /
229487, 637.4638888888888, /
229776, 638.2666666666667, /
230091, 639.1416666666667, /
230402, 640.0055555555556, /
230698, 640.8277777777778, /
230994, 641.65, /
231287, 642.4638888888888, /
231579, 643.275, /
231865, 644.0694444444445, /
232163, 644.8972222222222, /
232481, 645.7805555555556, /
232785, 646.625, /
233078, 647.4388888888889, /
233366, 648.2388888888889, /
233658, 649.05, /
233951, 649.8638888888889, /
234246, 650.6833333333333, /
234556, 651.5444444444445, /
234870, 652.4166666666666, /
235169, 653.2472222222223, /
235457, 654.0472222222222, /
235762, 654.8944444444444, /
236034, 655.65, /
236331, 656.475, /
236633, 657.3138888888889, /
236942, 658.1722222222222, /
237252, 659.0333333333333, /
237544, 659.8444444444444, /
237830, 660.6388888888889, /
238118, 661.4388888888889, /
238418, 662.2722222222222, /
238725, 663.125, /
239027, 663.9638888888888, /
239337, 664.825, /
239639, 665.6638888888889, /
239942, 666.5055555555556, /
240206, 667.2388888888889, /
240496, 668.0444444444445, /
240800, 668.8888888888889, /
241108, 669.7444444444444, /
241411, 670.5861111111111, /
241717, 671.4361111111111, /
242011, 672.2527777777777, /
242295, 673.0416666666666, /
242587, 673.8527777777778, /
242884, 674.6777777777778, /
243197, 675.5472222222222, /
243503, 676.3972222222222, /
243801, 677.225, /
244099, 678.0527777777778, /
244387, 678.8527777777778, /
244672, 679.6444444444444, /
244968, 680.4666666666667, /
245272, 681.3111111111111, /
245588, 682.1888888888889, /
245893, 683.0361111111112, /
246182, 683.8388888888888, /
246479, 684.6638888888889, /
246770, 685.4722222222222, /
247057, 686.2694444444444, /
247361, 687.1138888888889, /
247667, 687.9638888888888, /
247979, 688.8305555555555, /
248273, 689.6472222222222, /
248555, 690.4305555555555, /
248854, 691.2611111111111, /
249146, 692.0722222222222, /
249441, 692.8916666666667, /
249752, 693.7555555555556, /
250059, 694.6083333333333, /
250364, 695.4555555555555, /
250672, 696.3111111111111, /
250934, 697.0388888888889, /
251235, 697.875, /
251533, 698.7027777777778, /
251833, 699.5361111111112, /
252139, 700.3861111111111, /
252441, 701.225, /
252738, 702.05, /
253022, 702.8388888888888, /
253307, 703.6305555555556, /
253614, 704.4833333333333, /
253920, 705.3333333333334, /
254246, 706.2388888888889, /
254527, 707.0194444444444, /
254823, 707.8416666666667, /
255117, 708.6583333333333, /
255401, 709.4472222222222, /
255691, 710.2527777777777, /
256003, 711.1194444444444, /
256309, 711.9694444444444, /
256606, 712.7944444444445, /
256901, 713.6138888888889, /
257193, 714.425, /
257486, 715.2388888888889, /
257774, 716.0388888888889, /
258075, 716.875, /
258393, 717.7583333333333, /
258696, 718.6, /
258990, 719.4166666666666, /
259279, 720.2194444444444, /
259571, 721.0305555555556, /
259862, 721.8388888888888, /
260155, 722.6527777777778, /
260463, 723.5083333333333, /
260776, 724.3777777777777, /
261077, 725.2138888888888, /
261367, 726.0194444444444, /
261653, 726.8138888888889, /
261949, 727.6361111111111, /
262247, 728.4638888888888, /
262548, 729.3, /
262858, 730.1611111111112, /
263168, 731.0222222222222, /
263459, 731.8305555555555, /
263743, 732.6194444444444, /
264030, 733.4166666666666, /
264329, 734.2472222222223, /
264629, 735.0805555555555, /
264931, 735.9194444444445, /
265244, 736.7888888888889, /
265546, 737.6277777777777, /
265832, 738.4222222222222, /
266121, 739.225, /
266411, 740.0305555555556, /
266717, 740.8805555555556, /
267023, 741.7305555555556, /
267323, 742.5638888888889, /
267631, 743.4194444444445, /
267922, 744.2277777777778, /
268205, 745.0138888888889, /
268494, 745.8166666666667, /
268790, 746.6388888888889, /
269104, 747.5111111111111, /
269411, 748.3638888888889, /
269710, 749.1944444444445, /
270012, 750.0333333333333, /
270302, 750.8388888888888, /
270586, 751.6277777777777, /
270881, 752.4472222222222, /
271186, 753.2944444444445, /
271500, 754.1666666666666, /
271802, 755.0055555555556, /
272091, 755.8083333333333, /
272388, 756.6333333333333, /
272677, 757.4361111111111, /
272962, 758.2277777777778, /
273265, 759.0694444444445, /
273575, 759.9305555555555, /
273886, 760.7944444444445, /
274183, 761.6194444444444, /
274468, 762.4111111111112, /
274766, 763.2388888888889, /
275075, 764.0972222222222, /
275349, 764.8583333333333, /
275656, 765.7111111111111, /
275963, 766.5638888888889, /
276268, 767.4111111111112, /
276555, 768.2083333333334, /
276839, 768.9972222222223, /
277139, 769.8305555555555, /
277437, 770.6583333333333, /
277762, 771.5611111111111, /
278047, 772.3527777777778, /
278355, 773.2083333333334, /
278651, 774.0305555555556, /
278935, 774.8194444444445, /
279221, 775.6138888888889, /
279526, 776.4611111111111, /
279830, 777.3055555555555, /
280129, 778.1361111111111, /
280432, 778.9777777777778, /
280731, 779.8083333333333, /
281022, 780.6166666666667, /
281326, 781.4611111111111, /
281602, 782.2277777777778, /
281915, 783.0972222222222, /
282221, 783.9472222222222, /
282521, 784.7805555555556, /
282818, 785.6055555555556, /
283111, 786.4194444444445, /
283398, 787.2166666666667, /
283685, 788.0138888888889, /
283988, 788.8555555555556, /
284300, 789.7222222222222, /
284605, 790.5694444444445, /
284902, 791.3944444444444, /
285191, 792.1972222222222, /
285486, 793.0166666666667, /
285777, 793.825, /
286071, 794.6416666666667, /
286384, 795.5111111111111, /
286695, 796.375, /
286993, 797.2027777777778, /
287283, 798.0083333333333, /
287590, 798.8611111111111, /
287864, 799.6222222222223, /
288159, 800.4416666666667, /
288457, 801.2694444444444, /
288771, 802.1416666666667, /
289079, 802.9972222222223, /
289370, 803.8055555555555, /
289659, 804.6083333333333, /
289948, 805.4111111111112, /
290246, 806.2388888888889, /
290549, 807.0805555555555, /
290849, 807.9138888888889, /
291164, 808.7888888888889, /
291462, 809.6166666666667, /
291744, 810.4, /
292033, 811.2027777777778, /
292323, 812.0083333333333, /
292628, 812.8555555555556, /
292933, 813.7027777777778, /
293235, 814.5416666666666, /
293547, 815.4083333333333, /
293839, 816.2194444444444, /
294123, 817.0083333333333, /
294413, 817.8138888888889, /
294710, 818.6388888888889, /
295022, 819.5055555555556, /
295326, 820.35, /
295623, 821.175, /
295927, 822.0194444444444, /
296215, 822.8194444444445, /
296495, 823.5972222222222, /
296808, 824.4666666666667, /
297096, 825.2666666666667, /
297410, 826.1388888888889, /
297711, 826.975, /
298006, 827.7944444444445, /
298305, 828.625, /
298592, 829.4222222222222, /
298876, 830.2111111111111, /
299177, 831.0472222222222, /
299487, 831.9083333333333, /
299794, 832.7611111111111, /
300089, 833.5805555555555, /
300378, 834.3833333333333, /
300673, 835.2027777777778, /
300962, 836.0055555555556, /
301256, 836.8222222222222, /
301565, 837.6805555555555, /
301878, 838.55, /
302180, 839.3888888888889, /
302470, 840.1944444444445, /
302759, 840.9972222222223, /
303053, 841.8138888888889, /
303348, 842.6333333333333, /
303649, 843.4694444444444, /
303955, 844.3194444444445, /
304265, 845.1805555555555, /
304559, 845.9972222222223, /
304842, 846.7833333333333, /
305137, 847.6027777777778, /
305436, 848.4333333333333, /
305737, 849.2694444444444, /
306044, 850.1222222222223, /
306347, 850.9638888888888, /
306649, 851.8027777777778, /
306936, 852.6, /
307218, 853.3833333333333, /
307517, 854.2138888888888, /
307821, 855.0583333333333, /
308123, 855.8972222222222, /
308430, 856.75, /
308727, 857.575, /
309023, 858.3972222222222, /
309312, 859.2, /
309597, 859.9916666666667, /
309907, 860.8527777777778, /
310218, 861.7166666666667, /
310519, 862.5527777777778, /
310820, 863.3888888888889, /
311109, 864.1916666666667, /
311402, 865.0055555555556, /
311690, 865.8055555555555, /
311980, 866.6111111111111, /
312297, 867.4916666666667, /
312607, 868.3527777777778, /
312904, 869.1777777777778, /
313198, 869.9944444444444, /
313488, 870.8, /
313784, 871.6222222222223, /
314075, 872.4305555555555, /
314375, 873.2638888888889, /
314694, 874.15, /
314998, 874.9944444444444, /
315288, 875.8, /
315575, 876.5972222222222, /
315862, 877.3944444444444, /
316158, 878.2166666666667, /
316457, 879.0472222222222, /
316761, 879.8916666666667, /
317079, 880.775, /
317377, 881.6027777777778, /
317661, 882.3916666666667, /
317950, 883.1944444444445, /
318241, 884.0027777777777, /
318546, 884.85, /
318851, 885.6972222222222, /
319155, 886.5416666666666, /
319465, 887.4027777777778, /
319754, 888.2055555555555, /
320034, 888.9833333333333, /
320322, 889.7833333333333, /
320622, 890.6166666666667, /
320934, 891.4833333333333, /
321240, 892.3333333333334, /
321544, 893.1777777777778, /
321844, 894.0111111111111, /
322131, 894.8083333333333, /
322411, 895.5861111111111, /
322705, 896.4027777777778, /
323015, 897.2638888888889, /
323322, 898.1166666666667, /
323623, 898.9527777777778, /
323922, 899.7833333333333, /
324214, 900.5944444444444, /
324497, 901.3805555555556, /
324787, 902.1861111111111, /
325090, 903.0277777777778, /
325407, 903.9083333333333, /
325713, 904.7583333333333, /
326006, 905.5722222222222, /
326301, 906.3916666666667, /
326591, 907.1972222222222, /
326878, 907.9944444444444, /
327177, 908.825, /
327482, 909.6722222222222, /
327796, 910.5444444444445, /
328095, 911.375, /
328378, 912.1611111111112, /
328673, 912.9805555555556, /
328969, 913.8027777777778, /
329262, 914.6166666666667, /
329570, 915.4722222222222, /
329877, 916.325, /
330187, 917.1861111111111, /
330477, 917.9916666666667, /
330757, 918.7694444444444, /
331055, 919.5972222222222, /
331352, 920.4222222222222, /
331651, 921.2527777777777, /
331957, 922.1027777777778, /
332262, 922.95, /
332563, 923.7861111111112, /
332848, 924.5777777777778, /
333133, 925.3694444444444, /
333436, 926.2111111111111, /
333740, 927.0555555555555, /
334043, 927.8972222222222, /
334347, 928.7416666666667, /
334643, 929.5638888888889, /
334938, 930.3833333333333, /
335244, 931.2333333333333, /
335510, 931.9722222222222, /
335819, 932.8305555555555, /
336126, 933.6833333333333, /
336428, 934.5222222222222, /
336728, 935.3555555555556, /
337020, 936.1666666666666, /
337317, 936.9916666666667, /
337604, 937.7888888888889, /
337899, 938.6083333333333, /
338216, 939.4888888888889, /
338521, 940.3361111111111, /
338815, 941.1527777777778, /
339107, 941.9638888888888, /
339396, 942.7666666666667, /
339686, 943.5722222222222, /
339979, 944.3861111111111, /
340283, 945.2305555555556, /
340598, 946.1055555555556, /
340902, 946.95, /
341195, 947.7638888888889, /
341503, 948.6194444444444, /
341777, 949.3805555555556, /
342070, 950.1944444444445, /
342370, 951.0277777777778, /
342680, 951.8888888888889, /
342990, 952.75, /
343286, 953.5722222222222, /
343571, 954.3638888888889, /
343856, 955.1555555555556, /
344153, 955.9805555555556, /
344454, 956.8166666666667, /
344759, 957.6638888888889, /
345070, 958.5277777777778, /
345378, 959.3833333333333, /
345665, 960.1805555555555, /
345951, 960.975, /
346238, 961.7722222222222, /
346542, 962.6166666666667, /
346847, 963.4638888888888, /
347148, 964.3, /
347459, 965.1638888888889, /
347754, 965.9833333333333, /
348056, 966.8222222222222, /
348325, 967.5694444444445, /
348619, 968.3861111111111, /
348931, 969.2527777777777, /
349238, 970.1055555555556, /
349537, 970.9361111111111, /
349843, 971.7861111111112, /
350132, 972.5888888888888, /
350414, 973.3722222222223, /
350706, 974.1833333333333, /
351009, 975.025, /
351321, 975.8916666666667, /
351625, 976.7361111111111, /
351917, 977.5472222222222, /
352214, 978.3722222222223, /
352505, 979.1805555555555, /
352792, 979.9777777777778, /
353092, 980.8111111111111, /
353402, 981.6722222222222, /
353717, 982.5472222222222, /
354044, 983.4555555555555, /
354298, 984.1611111111112, /
354596, 984.9888888888889, /
354885, 985.7916666666666, /
355176, 986.6, /
355480, 987.4444444444445, /
355787, 988.2972222222222, /
356125, 989.2361111111111, /
356384, 989.9555555555555, /
356670, 990.75, /
356968, 991.5777777777778, /
357263, 992.3972222222222, /
357562, 993.2277777777778, /
357870, 994.0833333333334, /
358175, 994.9305555555555, /
358475, 995.7638888888889, /
358760, 996.5555555555555, /
359046, 997.35, /
359345, 998.1805555555555, /
359646, 999.0166666666667, /
359948, 999.8555555555556, /
360252, 1000.7, /
360556, 1001.5444444444445, /
360849, 1002.3583333333333, /
361135, 1003.1527777777778, /
361426, 1003.9611111111111, /
361734, 1004.8166666666667, /
362041, 1005.6694444444445, /
362340, 1006.5, /
362638, 1007.3277777777778, /
362935, 1008.1527777777778, /
363222, 1008.95, /
363507, 1009.7416666666667, /
363807, 1010.575, /
364119, 1011.4416666666667, /
364424, 1012.2888888888889, /
364724, 1013.1222222222223, /
365017, 1013.9361111111111, /
365312, 1014.7555555555556, /
365600, 1015.5555555555555, /
365889, 1016.3583333333333, /
366200, 1017.2222222222222, /
366509, 1018.0805555555555, /
366809, 1018.9138888888889, /
367104, 1019.7333333333333, /
367390, 1020.5277777777778, /
367683, 1021.3416666666667, /
367975, 1022.1527777777778, /
368272, 1022.9777777777778, /
368588, 1023.8555555555556, /
368898, 1024.7166666666667, /
369192, 1025.5333333333333, /
369483, 1026.3416666666667, /
369770, 1027.138888888889, /
370067, 1027.963888888889, /
370365, 1028.7916666666667, /
370667, 1029.6305555555555, /
370982, 1030.5055555555555, /
371285, 1031.3472222222222, /
371567, 1032.1305555555555, /
371886, 1033.0166666666667, /
372145, 1033.736111111111, /
372447, 1034.575, /
372752, 1035.4222222222222, /
373055, 1036.263888888889, /
373371, 1037.1416666666667, /
373664, 1037.9555555555555, /
373946, 1038.7388888888888, /
374234, 1039.5388888888888, /
374529, 1040.3583333333333, /
374839, 1041.2194444444444, /
375142, 1042.0611111111111, /
375442, 1042.8944444444444, /
375748, 1043.7444444444445, /
376037, 1044.5472222222222, /
376320, 1045.3333333333333, /
376613, 1046.1472222222221, /
376917, 1046.9916666666666, /
377233, 1047.8694444444445, /
377536, 1048.7111111111112, /
377829, 1049.525, /
378129, 1050.3583333333333, /
378417, 1051.1583333333333, /
378699, 1051.9416666666666, /
378998, 1052.7722222222221, /
379306, 1053.6277777777777, /
379618, 1054.4944444444445, /
379914, 1055.3166666666666, /
380203, 1056.1194444444445, /
380502, 1056.95, /
380793, 1057.7583333333334, /
381083, 1058.5638888888889, /
381411, 1059.475, /
381701, 1060.2805555555556, /
382006, 1061.1277777777777, /
382295, 1061.9305555555557, /
382583, 1062.7305555555556, /
382878, 1063.55, /
383170, 1064.361111111111, /
383469, 1065.1916666666666, /
383774, 1066.0388888888888, /
384084, 1066.9, /
384383, 1067.7305555555556, /
384670, 1068.5277777777778, /
384960, 1069.3333333333333, /
385259, 1070.1638888888888, /
385558, 1070.9944444444445, /
385863, 1071.8416666666667, /
386165, 1072.6805555555557, /
386493, 1073.5916666666667, /
386761, 1074.3361111111112, /
387043, 1075.1194444444445, /
387338, 1075.9388888888889, /
387640, 1076.7777777777778, /
387943, 1077.6194444444445, /
388249, 1078.4694444444444, /
388550, 1079.3055555555557, /
388848, 1080.1333333333334, /
389136, 1080.9333333333334, /
389419, 1081.7194444444444, /
389724, 1082.5666666666666, /
390032, 1083.4222222222222, /
390333, 1084.2583333333334, /
390637, 1085.1027777777779, /
390930, 1085.9166666666667, /
391222, 1086.7277777777779, /
391508, 1087.5222222222221, /
391796, 1088.3222222222223, /
392109, 1089.1916666666666, /
392420, 1090.0555555555557, /
392722, 1090.8944444444444, /
393020, 1091.7222222222222, /
393309, 1092.525, /
393602, 1093.338888888889, /
393891, 1094.1416666666667, /
394187, 1094.963888888889, /
394505, 1095.8472222222222, /
394812, 1096.7, /
395104, 1097.5111111111112, /
395391, 1098.3083333333334, /
395678, 1099.1055555555556, /
395975, 1099.9305555555557, /
396270, 1100.75, /
396575, 1101.5972222222222, /
396895, 1102.486111111111, /
397197, 1103.325, /
397481, 1104.1138888888888, /
397767, 1104.9083333333333, /
398057, 1105.713888888889, /
398357, 1106.5472222222222, /
398659, 1107.3861111111112, /
398964, 1108.2333333333333, /
399277, 1109.1027777777779, /
399569, 1109.9138888888888, /
399851, 1110.6972222222223, /
400137, 1111.4916666666666, /
400435, 1112.3194444444443, /
400744, 1113.1777777777777, /
401053, 1114.036111111111, /
401357, 1114.8805555555555, /
401660, 1115.7222222222222, /
401947, 1116.5194444444444, /
402228, 1117.3, /
402518, 1118.1055555555556, /
402825, 1118.9583333333333, /
403135, 1119.8194444444443, /
403436, 1120.6555555555556, /
403737, 1121.4916666666666, /
404032, 1122.3111111111111, /
404318, 1123.1055555555556, /
404605, 1123.9027777777778, /
404904, 1124.7333333333333, /
405217, 1125.6027777777779, /
405525, 1126.4583333333333, /
405822, 1127.2833333333333, /
406118, 1128.1055555555556, /
406408, 1128.911111111111, /
406692, 1129.7, /
406988, 1130.5222222222221, /
407292, 1131.3666666666666, /
407605, 1132.236111111111, /
407930, 1133.138888888889, /
408199, 1133.8861111111112, /
408494, 1134.7055555555555, /
408785, 1135.513888888889, /
409076, 1136.3222222222223, /
409382, 1137.1722222222222, /
409689, 1138.025, /
409999, 1138.8861111111112, /
410295, 1139.7083333333333, /
410577, 1140.4916666666666, /
410871, 1141.3083333333334, /
411166, 1142.1277777777777, /
411462, 1142.95, /
411770, 1143.8055555555557, /
412077, 1144.6583333333333, /
412383, 1145.5083333333334, /
412671, 1146.3083333333334, /
412954, 1147.0944444444444, /
413255, 1147.9305555555557, /
413555, 1148.763888888889, /
413857, 1149.6027777777779, /
414164, 1150.4555555555555, /
414464, 1151.2888888888888, /
414789, 1152.1916666666666, /
415042, 1152.8944444444444, /
415327, 1153.6861111111111, /
415634, 1154.5388888888888, /
415940, 1155.388888888889, /
416244, 1156.2333333333333, /
416569, 1157.1361111111112, /
416844, 1157.9, /
417137, 1158.713888888889, /
417423, 1159.5083333333334, /
417713, 1160.3138888888889, /
418028, 1161.1888888888889, /
418334, 1162.0388888888888, /
418632, 1162.8666666666666, /
418926, 1163.6833333333334, /
419216, 1164.4888888888888, /
419509, 1165.3027777777777, /
419798, 1166.1055555555556, /
420098, 1166.9388888888889, /
420417, 1167.825, /
420721, 1168.6694444444445, /
421013, 1169.4805555555556, /
421302, 1170.2833333333333, /
421594, 1171.0944444444444, /
421885, 1171.9027777777778, /
422181, 1172.725, /
422490, 1173.5833333333333, /
422802, 1174.45, /
423099, 1175.275, /
423387, 1176.075, /
423673, 1176.8694444444445, /
423969, 1177.6916666666666, /
424267, 1178.5194444444444, /
424569, 1179.3583333333333, /
424882, 1180.2277777777779, /
425190, 1181.0833333333333, /
425480, 1181.888888888889, /
425766, 1182.6833333333334, /
426052, 1183.4777777777779, /
426351, 1184.3083333333334, /
426656, 1185.1555555555556, /
426956, 1185.9888888888888, /
427267, 1186.8527777777779, /
427568, 1187.6888888888889, /
427852, 1188.4777777777779, /
428140, 1189.2777777777778, /
428433, 1190.0916666666667, /
428741, 1190.9472222222223, /
429048, 1191.8, /
429346, 1192.6277777777777, /
429655, 1193.486111111111, /
429947, 1194.2972222222222, /
430229, 1195.0805555555555, /
430518, 1195.8833333333334, /
430817, 1196.713888888889, /
431128, 1197.5777777777778, /
431432, 1198.4222222222222, /
431728, 1199.2444444444445, /
432051, 1200.1416666666667, /
432319, 1200.8861111111112, /
432605, 1201.6805555555557, /
432900, 1202.5, /
433207, 1203.3527777777779, /
433521, 1204.225, /
433822, 1205.0611111111111, /
434112, 1205.8666666666666, /
434428, 1206.7444444444445, /
434695, 1207.486111111111, /
434983, 1208.286111111111, /
435286, 1209.1277777777777, /
435595, 1209.986111111111, /
435907, 1210.8527777777779, /
436202, 1211.6722222222222, /
436489, 1212.4694444444444, /
436787, 1213.2972222222222, /
437077, 1214.1027777777779, /
437370, 1214.9166666666667, /
437677, 1215.7694444444444, /
437984, 1216.6222222222223, /
438286, 1217.4611111111112, /
438573, 1218.2583333333334, /
438860, 1219.0555555555557, /
439157, 1219.8805555555555, /
439454, 1220.7055555555555, /
439756, 1221.5444444444445, /
440064, 1222.4, /
440372, 1223.2555555555555, /
440665, 1224.0694444444443, /
440951, 1224.8638888888888, /
441243, 1225.675, /
441543, 1226.5083333333334, /
441848, 1227.3555555555556, /
442151, 1228.1972222222223, /
442452, 1229.0333333333333, /
442752, 1229.8666666666666, /
443040, 1230.6666666666667, /
443355, 1231.5416666666667, /
443621, 1232.2805555555556, /
443932, 1233.1444444444444, /
444238, 1233.9944444444445, /
444541, 1234.8361111111112, /
444837, 1235.6583333333333, /
445133, 1236.4805555555556, /
445420, 1237.2777777777778, /
445706, 1238.0722222222223, /
446015, 1238.9305555555557, /
446325, 1239.7916666666667, /
446625, 1240.625, /
446923, 1241.4527777777778, /
447213, 1242.2583333333334, /
447505, 1243.0694444444443, /
447795, 1243.875, /
448089, 1244.6916666666666, /
448405, 1245.5694444444443, /
448716, 1246.4333333333334, /
449013, 1247.2583333333334, /
449304, 1248.0666666666666, /
449591, 1248.8638888888888, /
449905, 1249.736111111111, /
450179, 1250.4972222222223, /
450479, 1251.3305555555555, /
450830, 1252.3055555555557, /
451101, 1253.0583333333334, /
451390, 1253.861111111111, /
451677, 1254.6583333333333, /
451966, 1255.4611111111112, /
452268, 1256.3, /
452570, 1257.138888888889, /
452873, 1257.9805555555556, /
453189, 1258.8583333333333, /
453485, 1259.6805555555557, /
453767, 1260.463888888889, /
454052, 1261.2555555555555, /
454344, 1262.0666666666666, /
454648, 1262.911111111111, /
454953, 1263.7583333333334, /
455256, 1264.6, /
455565, 1265.4583333333333, /
455873, 1266.3138888888889, /
456136, 1267.0444444444445, /
456427, 1267.8527777777779, /
456729, 1268.6916666666666, /
457039, 1269.5527777777777, /
457344, 1270.4, /
457646, 1271.2388888888888, /
457973, 1272.1472222222221, /
458227, 1272.8527777777779, /
458512, 1273.6444444444444, /
458806, 1274.4611111111112, /
459118, 1275.3277777777778, /
459427, 1276.1861111111111, /
459728, 1277.0222222222221, /
460026, 1277.85, /
460319, 1278.6638888888888, /
460605, 1279.4583333333333, /
460896, 1280.2666666666667, /
461199, 1281.1083333333333, /
461513, 1281.9805555555556, /
461816, 1282.8222222222223, /
462107, 1283.6305555555555, /
462403, 1284.4527777777778, /
462693, 1285.2583333333334, /
462980, 1286.0555555555557, /
463280, 1286.888888888889, /
463588, 1287.7444444444445, /
463900, 1288.611111111111, /
464199, 1289.4416666666666, /
464484, 1290.2333333333333, /
464781, 1291.0583333333334, /
465073, 1291.8694444444445, /
465365, 1292.6805555555557, /
465672, 1293.5333333333333, /
465978, 1294.3833333333334, /
466285, 1295.236111111111, /
466575, 1296.0416666666667, /
466857, 1296.825, /
467155, 1297.6527777777778, /
467452, 1298.4777777777779, /
467753, 1299.3138888888889, /
468062, 1300.1722222222222, /
468367, 1301.0194444444444, /
468669, 1301.8583333333333, /
468955, 1302.6527777777778, /
469238, 1303.4388888888889, /
469541, 1304.2805555555556, /
469844, 1305.1222222222223, /
470143, 1305.9527777777778, /
470446, 1306.7944444444445, /
470745, 1307.625, /
471037, 1308.4361111111111, /
471323, 1309.2305555555556, /
471613, 1310.036111111111, /
471923, 1310.8972222222221, /
472230, 1311.75, /
472532, 1312.588888888889, /
472831, 1313.4194444444445, /
473124, 1314.2333333333333, /
473434, 1315.0944444444444, /
473701, 1315.8361111111112, /
474000, 1316.6666666666667, /
474313, 1317.536111111111, /
474618, 1318.3833333333334, /
474916, 1319.2111111111112, /
475206, 1320.0166666666667, /
475498, 1320.8277777777778, /
475811, 1321.6972222222223, /
476084, 1322.4555555555555, /
476392, 1323.3111111111111, /
476709, 1324.1916666666666, /
477010, 1325.0277777777778, /
477299, 1325.8305555555555, /
477586, 1326.6277777777777, /
477879, 1327.4416666666666, /
478171, 1328.2527777777777, /
478470, 1329.0833333333333, /
478783, 1329.9527777777778, /
479093, 1330.8138888888889, /
479386, 1331.6277777777777, /
479674, 1332.4277777777777, /
479963, 1333.2305555555556, /
480261, 1334.0583333333334, /
480562, 1334.8944444444444, /
480865, 1335.736111111111, /
481178, 1336.6055555555556, /
481479, 1337.4416666666666, /
481764, 1338.2333333333333, /
482051, 1339.0305555555556, /
482341, 1339.8361111111112, /
482644, 1340.6777777777777, /
482948, 1341.5222222222221, /
483250, 1342.361111111111, /
483562, 1343.2277777777779, /
483856, 1344.0444444444445, /
484140, 1344.8333333333333, /
484430, 1345.638888888889, /
484726, 1346.4611111111112, /
485039, 1347.3305555555555, /
485343, 1348.175, /
485640, 1349.0, /
485946, 1349.85, /
486233, 1350.6472222222221, /
486514, 1351.4277777777777, /
486805, 1352.236111111111, /
487110, 1353.0833333333333, /
487421, 1353.9472222222223, /
487725, 1354.7916666666667, /
488020, 1355.611111111111, /
488320, 1356.4444444444443, /
488607, 1357.2416666666666, /
488891, 1358.0305555555556, /
489189, 1358.8583333333333, /
489502, 1359.7277777777779, /
489809, 1360.5805555555555, /
490105, 1361.4027777777778, /
490395, 1362.2083333333333, /
490689, 1363.025, /
490977, 1363.825, /
491271, 1364.6416666666667, /
491576, 1365.4888888888888, /
491891, 1366.3638888888888, /
492196, 1367.2111111111112, /
492484, 1368.0111111111112, /
492774, 1368.8166666666666, /
493068, 1369.6333333333334, /
493360, 1370.4444444444443, /
493662, 1371.2833333333333, /
493968, 1372.1333333333334, /
494278, 1372.9944444444445, /
494572, 1373.8111111111111, /
494853, 1374.5916666666667, /
495148, 1375.411111111111, /
495446, 1376.2388888888888, /
495746, 1377.0722222222223, /
496077, 1377.9916666666666, /
496360, 1378.7777777777778, /
496663, 1379.6194444444445, /
496949, 1380.4138888888888, /
497232, 1381.2, /
497530, 1382.0277777777778, /
497832, 1382.8666666666666, /
498135, 1383.7083333333333, /
498441, 1384.5583333333334, /
498740, 1385.388888888889, /
499036, 1386.2111111111112, /
499322, 1387.0055555555555, /
499608, 1387.8, /
499917, 1388.6583333333333, /
500225, 1389.513888888889, /
500529, 1390.3583333333333, /
500830, 1391.1944444444443, /
501121, 1392.0027777777777, /
501415, 1392.8194444444443, /
501700, 1393.611111111111, /
501991, 1394.4194444444445, /
502306, 1395.2944444444445, /
502613, 1396.1472222222221, /
502909, 1396.9694444444444, /
503204, 1397.7888888888888, /
503494, 1398.5944444444444, /
503787, 1399.4083333333333, /
504078, 1400.2166666666667, /
504380, 1401.0555555555557, /
504697, 1401.9361111111111, /
504999, 1402.775, /
505325, 1403.6805555555557, /
505580, 1404.388888888889, /
505870, 1405.1944444444443, /
506164, 1406.0111111111112, /
506461, 1406.8361111111112, /
506768, 1407.6888888888889, /
507081, 1408.5583333333334, /
507381, 1409.3916666666667, /
507668, 1410.1888888888889, /
507954, 1410.9833333333333, /
508163, 1411.5638888888889, V
508461, 1412.3916666666667, /
508761, 1413.225, /
509064, 1414.0666666666666, /
509378, 1414.9388888888889, /
509675, 1415.763888888889, /
509956, 1416.5444444444445, /
510242, 1417.338888888889, /
510537, 1418.1583333333333, /
510844, 1419.0111111111112, /
511148, 1419.8555555555556, /
511454, 1420.7055555555555, /
511782, 1421.6166666666666, /
512052, 1422.3666666666666, /
512335, 1423.1527777777778, /
512623, 1423.9527777777778, /
512927, 1424.7972222222222, /
513236, 1425.6555555555556, /
513537, 1426.4916666666666, /
513840, 1427.3333333333333, /
514136, 1428.1555555555556, /
514419, 1428.9416666666666, /
514706, 1429.7388888888888, /
515003, 1430.5638888888889, /
515314, 1431.4277777777777, /
515624, 1432.2888888888888, /
515925, 1433.125, /
516222, 1433.95, /
516514, 1434.7611111111112, /
516798, 1435.55, /
517093, 1436.3694444444445, /
517396, 1437.2111111111112, /
517709, 1438.0805555555555, /
518013, 1438.925, /
518302, 1439.7277777777779, /
518597, 1440.5472222222222, /
518887, 1441.3527777777779, /
519176, 1442.1555555555556, /
519479, 1442.9972222222223, /
519789, 1443.8583333333333, /
520100, 1444.7222222222222, /
520396, 1445.5444444444445, /
520680, 1446.3333333333333, /
520977, 1447.1583333333333, /
521267, 1447.963888888889, /
521560, 1448.7777777777778, /
521868, 1449.6333333333334, /
522174, 1450.4833333333333, /
522480, 1451.3333333333333, /
522768, 1452.1333333333334, /
523051, 1452.9194444444445, /
523352, 1453.7555555555555, /
523650, 1454.5833333333333, /
523951, 1455.4194444444445, /
524257, 1456.2694444444444, /
524563, 1457.1194444444445, /
524860, 1457.9444444444443, /
525144, 1458.7333333333333, /
525430, 1459.5277777777778, /
525732, 1460.3666666666666, /
526037, 1461.213888888889, /
526335, 1462.0416666666667, /
526638, 1462.8833333333334, /
526940, 1463.7222222222222, /
527230, 1464.5277777777778, /
527515, 1465.3194444444443, /
527811, 1466.1416666666667, /
528120, 1467.0, /
528456, 1467.9333333333334, /
528729, 1468.6916666666666, /
529024, 1469.5111111111112, /
529319, 1470.3305555555555, /
529605, 1471.125, /
529891, 1471.9194444444445, /
530195, 1472.763888888889, /
530505, 1473.625, /
530808, 1474.4666666666667, /
531109, 1475.3027777777777, /
531399, 1476.1083333333333, /
531693, 1476.925, /
531985, 1477.736111111111, /
532278, 1478.55, /
532591, 1479.4194444444445, /
532901, 1480.2805555555556, /
533198, 1481.1055555555556, /
533492, 1481.9222222222222, /
533778, 1482.7166666666667, /
534073, 1483.536111111111, /
534366, 1484.35, /
534665, 1485.1805555555557, /
534982, 1486.0611111111111, /
535290, 1486.9166666666667, /
535579, 1487.7194444444444, /
535868, 1488.5222222222221, /
536158, 1489.3277777777778, /
536454, 1490.15, /
536774, 1491.0388888888888, /
537057, 1491.825, /
537372, 1492.7, /
537668, 1493.5222222222221, /
537952, 1494.3111111111111, /
538240, 1495.111111111111, /
538531, 1495.9194444444445, /
538836, 1496.7666666666667, /
539141, 1497.6138888888888, /
539447, 1498.463888888889, /
539758, 1499.3277777777778, /
540049, 1500.1361111111112, /
540332, 1500.9222222222222, /
540620, 1501.7222222222222, /
540919, 1502.5527777777777, /
541229, 1503.4138888888888, /
541532, 1504.2555555555555, /
541834, 1505.0944444444444, /
542135, 1505.9305555555557, /
542440, 1506.7777777777778, /
542704, 1507.5111111111112, /
542998, 1508.3277777777778, /
543308, 1509.1888888888889, /
543618, 1510.05, /
543920, 1510.888888888889, /
544220, 1511.7222222222222, /
544544, 1512.6222222222223, /
544799, 1513.3305555555555, /
545086, 1514.1277777777777, /
545387, 1514.963888888889, /
545701, 1515.8361111111112, /
546005, 1516.6805555555557, /
546299, 1517.4972222222223, /
546594, 1518.3166666666666, /
546885, 1519.125, /
547172, 1519.9222222222222, /
547472, 1520.7555555555555, /
547781, 1521.6138888888888, /
548095, 1522.486111111111, /
548394, 1523.3166666666666, /
548679, 1524.1083333333333, /
548974, 1524.9277777777777, /
549264, 1525.7333333333333, /
549558, 1526.55, /
549863, 1527.3972222222221, /
550169, 1528.2472222222223, /
550480, 1529.111111111111, /
550770, 1529.9166666666667, /
551052, 1530.7, /
551352, 1531.5333333333333, /
551649, 1532.3583333333333, /
551948, 1533.1888888888889, /
552255, 1534.0416666666667, /
552559, 1534.8861111111112, /
552859, 1535.7194444444444, /
553144, 1536.5111111111112, /
553428, 1537.3, /
553729, 1538.1361111111112, /
554030, 1538.9722222222222, /
554330, 1539.8055555555557, /
554635, 1540.6527777777778, /
554937, 1541.4916666666666, /
555231, 1542.3083333333334, /
555517, 1543.1027777777779, /
555808, 1543.911111111111, /
556114, 1544.7611111111112, /
556421, 1545.6138888888888, /
556723, 1546.4527777777778, /
557021, 1547.2805555555556, /
557318, 1548.1055555555556, /
557606, 1548.9055555555556, /
557891, 1549.6972222222223, /
558190, 1550.5277777777778, /
558501, 1551.3916666666667, /
558807, 1552.2416666666666, /
559108, 1553.0777777777778, /
559401, 1553.8916666666667, /
559695, 1554.7083333333333, /
559985, 1555.513888888889, /
560271, 1556.3083333333334, /
560583, 1557.175, /
560894, 1558.0388888888888, /
561193, 1558.8694444444445, /
561488, 1559.6888888888889, /
561776, 1560.4888888888888, /
562068, 1561.3, /
562358, 1562.1055555555556, /
562654, 1562.9277777777777, /
562972, 1563.8111111111111, /
563282, 1564.6722222222222, /
563576, 1565.4888888888888, /
563866, 1566.2944444444445, /
564059, 1566.8305555555555, V
564351, 1567.6416666666667, /
564647, 1568.463888888889, /
564949, 1569.3027777777777, /
565261, 1570.1694444444445, /
565567, 1571.0194444444444, /
565857, 1571.825, /
566144, 1572.6222222222223, /
566431, 1573.4194444444445, /
566733, 1574.2583333333334, /
567037, 1575.1027777777779, f
567341, 1575.9472222222223, f
567655, 1576.8194444444443, /
567954, 1577.65, /
568236, 1578.4333333333334, /
568524, 1579.2333333333333, /
568814, 1580.0388888888888, /
569120, 1580.888888888889, /
569426, 1581.7388888888888, /
569726, 1582.5722222222223, /
570036, 1583.4333333333334, /
570324, 1584.2333333333333, /
570607, 1585.0194444444444, f
570899, 1585.8305555555555, /
571199, 1586.6638888888888, /
571513, 1587.536111111111, /
571817, 1588.3805555555555, /
572116, 1589.2111111111112, /
572416, 1590.0444444444445, /
572704, 1590.8444444444444, /
572987, 1591.6305555555555, /
573281, 1592.4472222222223, /
573588, 1593.3, /
573901, 1594.1694444444445, /
574201, 1595.0027777777777, f
574493, 1595.8138888888889, /
574790, 1596.638888888889, /
575081, 1597.4472222222223, /
575368, 1598.2444444444445, /
575671, 1599.0861111111112, /
575984, 1599.9555555555555, /
576291, 1600.8083333333334, /
576583, 1601.6194444444445, /
576875, 1602.4305555555557, /
577169, 1603.2472222222223, /
577457, 1604.0472222222222, /
577753, 1604.8694444444445, /
578060, 1605.7222222222222, /
578371, 1606.5861111111112, /
578672, 1607.4222222222222, /
578958, 1608.2166666666667, /
579251, 1609.0305555555556, /
579547, 1609.8527777777779, /
579840, 1610.6666666666667, /
580146, 1611.5166666666667, /
580453, 1612.3694444444445, /
580759, 1613.2194444444444, /
581051, 1614.0305555555556, /
581334, 1614.8166666666666, /
581628, 1615.6333333333334, /
581927, 1616.463888888889, /
582228, 1617.3, /
582535, 1618.1527777777778, /
582841, 1619.0027777777777, /
583144, 1619.8444444444444, /
583430, 1620.638888888889, /
583713, 1621.425, /
584016, 1622.2666666666667, /
584321, 1623.1138888888888, /
584655, 1624.0416666666667, /
584926, 1624.7944444444445, /
585223, 1625.6194444444445, /
585516, 1626.4333333333334, /
585800, 1627.2222222222222, /
586086, 1628.0166666666667, /
586397, 1628.8805555555555, /
586705, 1629.736111111111, /
587006, 1630.5722222222223, /
587306, 1631.4055555555556, /
587599, 1632.2194444444444, /
587891, 1633.0305555555556, /
588177, 1633.825, /
588474, 1634.65, /
588788, 1635.5222222222221, /
589093, 1636.3694444444445, /
589390, 1637.1944444444443, /
589680, 1638.0, /
589971, 1638.8083333333334, /
590262, 1639.6166666666666, /
590555, 1640.4305555555557, /
590863, 1641.286111111111, /
591179, 1642.1638888888888, /
591481, 1643.0027777777777, /
591771, 1643.8083333333334, /
592058, 1644.6055555555556, /
592352, 1645.4222222222222, /
592644, 1646.2333333333333, /
592942, 1647.0611111111111, /
593256, 1647.9333333333334, /
593565, 1648.7916666666667, /
593857, 1649.6027777777779, /
594145, 1650.4027777777778, /
594433, 1651.2027777777778, /
594730, 1652.0277777777778, /
595029, 1652.8583333333333, /
595333, 1653.7027777777778, /
595650, 1654.5833333333333, /
595950, 1655.4166666666667, /
596235, 1656.2083333333333, /
596523, 1657.0083333333334, /
596811, 1657.8083333333334, /
597113, 1658.6472222222221, /
597419, 1659.4972222222223, /
597720, 1660.3333333333333, /
598033, 1661.2027777777778, /
598326, 1662.0166666666667, /
598609, 1662.8027777777777, /
598899, 1663.6083333333333, /
599196, 1664.4333333333334, /
599509, 1665.3027777777777, /
599814, 1666.15, f
600114, 1666.9833333333333, /
600418, 1667.8277777777778, /
600704, 1668.6222222222223, /
600984, 1669.4, /
601275, 1670.2083333333333, /
601581, 1671.0583333333334, /
601891, 1671.9194444444445, /
602194, 1672.7611111111112, /
602492, 1673.588888888889, /
602789, 1674.4138888888888, /
603094, 1675.2611111111112, /
603362, 1676.0055555555555, /
603662, 1676.838888888889, /
603975, 1677.7083333333333, /
604284, 1678.5666666666666, /
604579, 1679.3861111111112, /
604872, 1680.2, /
605164, 1681.0111111111112, /
605451, 1681.8083333333334, /
605745, 1682.625, /
606050, 1683.4722222222222, /
606364, 1684.3444444444444, f
606669, 1685.1916666666666, f
606957, 1685.9916666666666, /
607250, 1686.8055555555557, /
607546, 1687.6277777777777, /
607837, 1688.4361111111111, /
608140, 1689.2777777777778, /
608447, 1690.1305555555555, /
608756, 1690.9888888888888, /
609050, 1691.8055555555557, /
609332, 1692.588888888889, /
609627, 1693.4083333333333, /
609924, 1694.2333333333333, f
610218, 1695.05, N
610528, 1695.911111111111, f
610831, 1696.7527777777777, f
611136, 1697.6, /
611423, 1698.3972222222221, /
611705, 1699.1805555555557, /
612005, 1700.013888888889, /
612307, 1700.8527777777779, /
612609, 1701.6916666666666, /
612915, 1702.5416666666667, /
613215, 1703.375, /
613510, 1704.1944444444443, /
613794, 1704.9833333333333, /
614079, 1705.775, /
614387, 1706.6305555555555, f
614695, 1707.486111111111, /
614999, 1708.3305555555555, /
615301, 1709.1694444444445, /
615594, 1709.9833333333333, /
615888, 1710.8, /
616173, 1711.5916666666667, /
616466, 1712.4055555555556, /
616780, 1713.2777777777778, /
617087, 1714.1305555555555, /
617382, 1714.95, /
617675, 1715.763888888889, /
617967, 1716.575, /
618257, 1717.3805555555555, /
618548, 1718.1888888888889, /
618854, 1719.0388888888888, /
619169, 1719.9138888888888, /
619472, 1720.7555555555555, /
619766, 1721.5722222222223, /
620053, 1722.3694444444445, /
620368, 1723.2444444444445, /
620637, 1723.9916666666666, /
620931, 1724.8083333333334, /
621244, 1725.6777777777777, /
621554, 1726.5388888888888, /
621850, 1727.361111111111, /
622141, 1728.1694444444445, /
622428, 1728.9666666666667, /
622727, 1729.7972222222222, /
623024, 1730.6222222222223, /
623323, 1731.4527777777778, /
623641, 1732.3361111111112, f
623949, 1733.1916666666666, f
624237, 1733.9916666666666, f
624520, 1734.7777777777778, f
624807, 1735.575, /
625108, 1736.411111111111, /
625409, 1737.2472222222223, /
625710, 1738.0833333333333, /
626027, 1738.963888888889, /
626324, 1739.7888888888888, /
626607, 1740.575, /
626895, 1741.375, /
627188, 1742.1888888888889, /
627495, 1743.0416666666667, /
627801, 1743.8916666666667, /
628103, 1744.7305555555556, /
628410, 1745.5833333333333, f
628698, 1746.3833333333334, f
628978, 1747.161111111111, /
629267, 1747.963888888889, /
629568, 1748.8, /
629880, 1749.6666666666667, /
630186, 1750.5166666666667, /
630488, 1751.3555555555556, /
630785, 1752.1805555555557, /
631072, 1752.9777777777779, /
631358, 1753.7722222222221, /
631652, 1754.588888888889, /
631964, 1755.4555555555555, /
632275, 1756.3194444444443, /
632572, 1757.1444444444444, f
632868, 1757.9666666666667, f
633161, 1758.7805555555556, /
633445, 1759.5694444444443, /
633736, 1760.3777777777777, /
634040, 1761.2222222222222, /
634354, 1762.0944444444444, /
634660, 1762.9444444444443, /
634952, 1763.7555555555555, /
635247, 1764.575, /
635537, 1765.3805555555555, /
635824, 1766.1777777777777, /
636128, 1767.0222222222221, /
636435, 1767.875, /
636746, 1768.7388888888888, f
637043, 1769.5638888888889, f
637326, 1770.35, /
637621, 1771.1694444444445, /
637914, 1771.9833333333333, /
638211, 1772.8083333333334, /
638520, 1773.6666666666667, /
638828, 1774.5222222222221, /
639136, 1775.3777777777777, /
639424, 1776.1777777777777, /
639706, 1776.9611111111112, /
640006, 1777.7944444444445, /
640304, 1778.6222222222223, /
640603, 1779.4527777777778, f
640911, 1780.3083333333334, /
641214, 1781.15, /
641512, 1781.9777777777779, /
641795, 1782.763888888889, /
642081, 1783.5583333333334, /
642389, 1784.4138888888888, /
642695, 1785.263888888889, /
642996, 1786.1, /
643301, 1786.9472222222223, /
643597, 1787.7694444444444, /
643888, 1788.5777777777778, /
644172, 1789.3666666666666, /
644463, 1790.175, f
644775, 1791.0416666666667, f
645082, 1791.8944444444444, /
645411, 1792.8083333333334, /
645678, 1793.55, /
645971, 1794.3638888888888, /
646261, 1795.1694444444445, /
646551, 1795.975, /
646853, 1796.8138888888889, /
647167, 1797.6861111111111, /
647472, 1798.5333333333333, /
647768, 1799.3555555555556, /
648056, 1800.1555555555556, /
648351, 1800.975, f
648640, 1801.7777777777778, f
648931, 1802.5861111111112, /
649244, 1803.4555555555555, /
649553, 1804.3138888888889, /
649852, 1805.1444444444444, /
