21, 0.058333333333333334, +
265, 0.7361111111111112, N
575, 1.5972222222222223, N
876, 2.433333333333333, N
1180, 3.2777777777777777, N
1482, 4.116666666666666, N
1795, 4.986111111111111, N
2127, 5.908333333333333, N
2444, 6.788888888888889, N
2744, 7.622222222222222, N
3044, 8.455555555555556, N
3347, 9.297222222222222, N
3647, 10.130555555555556, N
3954, 10.983333333333333, N
4282, 11.894444444444444, N
4609, 12.802777777777777, N
4939, 13.719444444444445, N
5255, 14.597222222222221, N
5580, 15.5, N
5892, 16.366666666666667, N
6216, 17.266666666666666, N
6553, 18.20277777777778, N
6873, 19.091666666666665, N
7178, 19.93888888888889, N
7481, 20.780555555555555, N
7781, 21.613888888888887, N
8097, 22.491666666666667, N
8417, 23.380555555555556, N
8739, 24.275, N
9060, 25.166666666666668, N
9361, 26.002777777777776, N
9663, 26.841666666666665, N
9963, 27.675, N
10279, 28.552777777777777, N
10597, 29.43611111111111, N
10910, 30.305555555555557, N
11223, 31.175, N
11520, 32.0, N
11803, 32.78611111111111, N
12097, 33.602777777777774, N
12395, 34.43055555555556, N
12698, 35.272222222222226, N
13001, 36.11388888888889, N
13300, 36.94444444444444, N
13598, 37.772222222222226, N
13886, 38.57222222222222, N
14169, 39.358333333333334, N
14461, 40.169444444444444, N
14769, 41.025, N
15082, 41.894444444444446, N
15383, 42.730555555555554, N
15683, 43.56388888888889, N
15977, 44.38055555555555, N
16269, 45.19166666666667, N
16575, 46.041666666666664, N
16886, 46.90555555555556, N
17219, 47.830555555555556, N
17536, 48.71111111111111, N
17837, 49.547222222222224, N
18146, 50.40555555555556, N
18445, 51.236111111111114, N
18739, 52.05277777777778, N
19048, 52.91111111111111, N
19366, 53.794444444444444, N
19688, 54.68888888888889, N
19990, 55.52777777777778, N
20286, 56.35, N
20593, 57.202777777777776, N
20893, 58.03611111111111, N
21200, 58.888888888888886, N
21517, 59.769444444444446, N
21837, 60.65833333333333, N
22136, 61.48888888888889, N
22423, 62.28611111111111, N
22727, 63.13055555555555, N
23026, 63.96111111111111, N
23327, 64.79722222222222, N
23639, 65.66388888888889, N
23955, 66.54166666666667, N
24268, 67.41111111111111, N
24561, 68.225, N
24860, 69.05555555555556, N
25165, 69.90277777777777, N
25465, 70.73611111111111, N
25773, 71.59166666666667, N
26082, 72.45, N
26389, 73.30277777777778, N
26684, 74.12222222222222, N
26974, 74.92777777777778, N
27272, 75.75555555555556, N
27574, 76.59444444444445, N
27874, 77.42777777777778, N
28186, 78.29444444444445, N
28491, 79.14166666666667, N
28784, 79.95555555555555, N
29064, 80.73333333333333, N
29344, 81.5111111111111, N
29650, 82.36111111111111, N
29955, 83.20833333333333, N
30259, 84.05277777777778, N
30574, 84.92777777777778, N
30880, 85.77777777777777, N
31181, 86.6138888888889, N
31478, 87.43888888888888, N
31792, 88.31111111111112, N
32116, 89.21111111111111, N
32436, 90.1, N
32758, 90.99444444444444, N
33065, 91.84722222222223, N
33374, 92.70555555555555, N
33678, 93.55, N
33980, 94.38888888888889, N
34308, 95.3, N
34629, 96.19166666666666, N
34938, 97.05, N
35239, 97.8861111111111, N
35540, 98.72222222222223, N
35846, 99.57222222222222, N
36154, 100.42777777777778, N
36476, 101.32222222222222, N
36804, 102.23333333333333, N
37115, 103.09722222222223, N
37418, 103.93888888888888, N
37718, 104.77222222222223, N
38026, 105.62777777777778, N
38332, 106.47777777777777, N
38647, 107.35277777777777, N
38974, 108.2611111111111, N
39284, 109.12222222222222, N
39578, 109.93888888888888, N
39873, 110.75833333333334, N
40178, 111.60555555555555, N
40480, 112.44444444444444, N
40788, 113.3, N
41105, 114.18055555555556, N
41413, 115.03611111111111, N
41706, 115.85, N
41996, 116.65555555555555, N
42286, 117.46111111111111, N
42591, 118.30833333333334, N
42901, 119.16944444444445, N
43203, 120.00833333333334, N
43521, 120.89166666666667, N
43827, 121.74166666666666, N
44113, 122.53611111111111, N
44404, 123.34444444444445, N
44704, 124.17777777777778, N
45014, 125.03888888888889, N
45323, 125.89722222222223, N
45629, 126.74722222222222, N
45930, 127.58333333333333, N
46216, 128.37777777777777, N
46498, 129.1611111111111, N
46784, 129.95555555555555, N
47091, 130.80833333333334, N
47390, 131.63888888888889, N
47683, 132.45277777777778, N
47978, 133.2722222222222, N
48262, 134.0611111111111, N
48541, 134.8361111111111, N
48826, 135.62777777777777, N
49114, 136.42777777777778, N
49422, 137.28333333333333, N
49728, 138.13333333333333, N
50024, 138.95555555555555, N
50325, 139.79166666666666, N
50618, 140.60555555555555, N
50907, 141.40833333333333, N
51210, 142.25, N
51519, 143.10833333333332, N
51840, 144.0, N
52148, 144.85555555555555, N
52447, 145.6861111111111, N
52750, 146.52777777777777, N
53045, 147.34722222222223, N
53336, 148.15555555555557, N
53641, 149.00277777777777, N
53952, 149.86666666666667, N
54256, 150.7111111111111, N
54550, 151.52777777777777, N
54840, 152.33333333333334, N
55126, 153.12777777777777, N
55410, 153.91666666666666, N
55706, 154.73888888888888, N
56005, 155.56944444444446, N
56304, 156.4, N
56590, 157.19444444444446, N
56864, 157.95555555555555, N
57147, 158.74166666666667, N
57439, 159.55277777777778, N
57737, 160.38055555555556, N
58053, 161.25833333333333, N
58375, 162.15277777777777, N
58702, 163.0611111111111, N
59024, 163.95555555555555, N
59343, 164.84166666666667, N
59660, 165.72222222222223, N
59977, 166.6027777777778, N
60295, 167.48611111111111, N
60623, 168.3972222222222, N
60942, 169.28333333333333, N
61245, 170.125, N
61538, 170.9388888888889, N
61847, 171.79722222222222, N
62160, 172.66666666666666, N
62473, 173.5361111111111, N
62792, 174.42222222222222, N
63106, 175.29444444444445, N
63413, 176.1472222222222, N
63710, 176.97222222222223, N
64023, 177.84166666666667, N
64356, 178.76666666666668, N
64683, 179.675, N
65013, 180.59166666666667, N
65327, 181.4638888888889, N
65639, 182.33055555555555, N
65939, 183.1638888888889, N
66239, 183.99722222222223, N
66573, 184.925, N
66896, 185.82222222222222, N
67210, 186.69444444444446, N
67524, 187.56666666666666, N
67831, 188.41944444444445, N
68136, 189.26666666666668, N
68442, 190.11666666666667, N
68772, 191.03333333333333, N
69103, 191.95277777777778, N
69427, 192.8527777777778, N
69740, 193.72222222222223, N
70052, 194.5888888888889, N
70363, 195.45277777777778, N
70678, 196.32777777777778, N
71010, 197.25, N
71345, 198.18055555555554, N
71670, 199.08333333333334, N
71981, 199.94722222222222, N
72287, 200.79722222222222, N
72598, 201.6611111111111, N
72906, 202.51666666666668, N
73228, 203.4111111111111, N
73559, 204.33055555555555, N
73867, 205.1861111111111, N
74166, 206.01666666666668, N
74460, 206.83333333333334, N
74766, 207.68333333333334, N
75071, 208.53055555555557, N
75378, 209.38333333333333, N
75703, 210.2861111111111, N
76011, 211.14166666666668, N
76299, 211.94166666666666, N
76594, 212.76111111111112, N
76891, 213.5861111111111, N
77193, 214.425, N
77501, 215.28055555555557, N
77813, 216.1472222222222, N
78125, 217.01388888888889, N
78415, 217.81944444444446, N
78698, 218.60555555555555, N
78985, 219.40277777777777, N
79289, 220.24722222222223, N
79594, 221.09444444444443, N
79896, 221.93333333333334, N
80206, 222.79444444444445, N
80506, 223.62777777777777, N
80793, 224.425, N
81086, 225.23888888888888, N
81374, 226.0388888888889, N
81688, 226.9111111111111, N
81995, 227.76388888888889, N
82292, 228.5888888888889, N
82605, 229.45833333333334, N
82903, 230.2861111111111, N
83188, 231.07777777777778, N
83484, 231.9, N
83788, 232.74444444444444, N
84103, 233.61944444444444, N
84404, 234.45555555555555, N
84699, 235.275, N
84992, 236.0888888888889, N
85274, 236.87222222222223, N
85547, 237.63055555555556, N
85835, 238.43055555555554, N
86137, 239.26944444444445, N
86440, 240.11111111111111, N
86734, 240.92777777777778, N
87024, 241.73333333333332, N
87311, 242.53055555555557, N
87591, 243.30833333333334, N
87872, 244.0888888888889, N
88166, 244.90555555555557, N
88470, 245.75, N
88769, 246.58055555555555, N
89056, 247.37777777777777, N
89340, 248.16666666666666, N
89629, 248.96944444444443, N
89907, 249.74166666666667, N
90194, 250.5388888888889, N
90496, 251.37777777777777, N
90802, 252.2277777777778, N
91103, 253.0638888888889, N
91388, 253.85555555555555, N
91674, 254.65, N
91966, 255.4611111111111, N
92252, 256.25555555555553, N
92550, 257.0833333333333, N
92851, 257.9194444444444, N
93153, 258.7583333333333, N
93440, 259.55555555555554, N
93719, 260.3305555555556, N
94004, 261.1222222222222, N
94288, 261.9111111111111, N
94575, 262.7083333333333, N
94875, 263.5416666666667, N
95165, 264.34722222222223, N
95455, 265.15277777777777, N
95722, 265.89444444444445, N
95978, 266.60555555555555, N
96237, 267.325, N
96510, 268.0833333333333, N
96790, 268.8611111111111, N
97078, 269.6611111111111, N
97376, 270.4888888888889, N
97673, 271.31388888888887, N
97970, 272.1388888888889, N
98256, 272.93333333333334, N
98556, 273.76666666666665, N
98882, 274.6722222222222, N
99189, 275.525, N
99495, 276.375, N
99805, 277.2361111111111, N
100108, 278.0777777777778, N
100402, 278.89444444444445, N
100690, 279.69444444444446, N
101003, 280.56388888888887, N
101326, 281.4611111111111, N
101642, 282.3388888888889, N
101960, 283.22222222222223, N
102272, 284.0888888888889, N
102580, 284.94444444444446, N
102884, 285.7888888888889, N
103201, 286.6694444444444, N
103527, 287.575, N
103847, 288.4638888888889, N
104165, 289.34722222222223, N
104475, 290.2083333333333, N
104790, 291.0833333333333, N
105096, 291.93333333333334, N
105415, 292.81944444444446, N
105758, 293.77222222222224, N
106083, 294.675, N
106398, 295.55, N
106705, 296.40277777777777, N
107019, 297.275, N
107335, 298.15277777777777, N
107653, 299.0361111111111, N
107993, 299.98055555555555, N
108320, 300.8888888888889, N
108619, 301.71944444444443, N
108922, 302.56111111111113, N
109229, 303.4138888888889, N
109538, 304.27222222222224, N
109848, 305.1333333333333, N
110172, 306.03333333333336, N
110489, 306.9138888888889, N
110792, 307.75555555555553, N
111089, 308.5805555555556, N
111389, 309.4138888888889, N
111705, 310.2916666666667, N
112021, 311.1694444444444, N
112340, 312.05555555555554, N
112659, 312.94166666666666, N
112961, 313.78055555555557, N
113258, 314.60555555555555, N
113558, 315.43888888888887, N
113877, 316.325, N
114203, 317.23055555555555, N
114526, 318.1277777777778, N
114859, 319.0527777777778, N
115175, 319.93055555555554, N
115477, 320.76944444444445, N
115782, 321.6166666666667, N
116095, 322.4861111111111, N
116417, 323.38055555555553, N
116735, 324.2638888888889, N
117052, 325.14444444444445, N
117358, 325.99444444444447, N
117657, 326.825, N
117961, 327.6694444444444, N
118273, 328.5361111111111, N
118597, 329.43611111111113, N
118915, 330.31944444444446, N
119229, 331.19166666666666, N
119540, 332.05555555555554, N
119838, 332.8833333333333, N
120134, 333.7055555555556, N
120438, 334.55, N
120758, 335.43888888888887, N
121076, 336.3222222222222, N
121379, 337.1638888888889, N
121679, 337.9972222222222, N
121971, 338.80833333333334, N
122260, 339.6111111111111, N
122563, 340.4527777777778, N
122874, 341.31666666666666, N
123188, 342.18888888888887, N
123491, 343.03055555555557, N
123776, 343.8222222222222, N
124073, 344.64722222222224, N
124362, 345.45, N
124646, 346.2388888888889, N
124949, 347.0805555555556, N
125256, 347.93333333333334, N
125561, 348.78055555555557, N
125854, 349.59444444444443, N
126142, 350.39444444444445, N
126445, 351.2361111111111, N
126751, 352.0861111111111, N
127062, 352.95, N
127383, 353.84166666666664, N
127713, 354.7583333333333, N
128029, 355.6361111111111, N
128327, 356.4638888888889, N
128638, 357.3277777777778, N
128950, 358.19444444444446, N
129267, 359.075, N
129586, 359.9611111111111, N
129901, 360.8361111111111, N
130209, 361.69166666666666, N
130500, 362.5, N
130793, 363.31388888888887, N
131104, 364.1777777777778, N
131410, 365.02777777777777, N
131714, 365.8722222222222, N
132027, 366.7416666666667, N
132338, 367.60555555555555, N
132630, 368.4166666666667, N
132919, 369.21944444444443, N
133217, 370.0472222222222, N
133517, 370.88055555555553, N
133808, 371.68888888888887, N
134090, 372.47222222222223, N
134368, 373.24444444444447, N
134651, 374.03055555555557, N
134932, 374.81111111111113, N
135228, 375.6333333333333, N
135556, 376.5444444444444, N
135899, 377.4972222222222, N
136231, 378.4194444444444, N
136563, 379.34166666666664, N
136895, 380.2638888888889, N
137221, 381.1694444444444, N
137542, 382.06111111111113, N
137894, 383.0388888888889, N
138233, 383.98055555555555, N
138558, 384.8833333333333, N
138874, 385.7611111111111, N
139191, 386.64166666666665, N
139506, 387.51666666666665, N
139819, 388.3861111111111, N
140155, 389.31944444444446, N
140489, 390.2472222222222, N
140806, 391.1277777777778, N
141115, 391.9861111111111, N
141425, 392.84722222222223, N
141738, 393.71666666666664, N
142049, 394.5805555555556, N
142376, 395.4888888888889, N
142701, 396.39166666666665, N
143011, 397.2527777777778, N
143313, 398.09166666666664, N
143614, 398.9277777777778, N
143920, 399.77777777777777, N
144220, 400.6111111111111, N
144529, 401.46944444444443, N
144851, 402.3638888888889, N
145157, 403.2138888888889, N
145452, 404.03333333333336, N
145742, 404.8388888888889, N
146046, 405.68333333333334, N
146359, 406.5527777777778, N
146672, 407.4222222222222, N
146994, 408.31666666666666, N
147317, 409.2138888888889, N
147619, 410.0527777777778, N
147924, 410.9, N
148232, 411.75555555555553, N
148557, 412.65833333333336, N
148879, 413.5527777777778, N
149196, 414.43333333333334, N
149525, 415.34722222222223, N
149831, 416.1972222222222, N
150129, 417.025, N
150438, 417.8833333333333, N
150763, 418.7861111111111, N
151086, 419.68333333333334, N
151399, 420.5527777777778, N
151717, 421.43611111111113, N
152015, 422.2638888888889, N
152307, 423.075, N
152600, 423.8888888888889, N
152914, 424.7611111111111, N
153244, 425.6777777777778, N
153563, 426.56388888888887, N
153881, 427.4472222222222, N
154190, 428.30555555555554, N
154492, 429.14444444444445, N
154805, 430.0138888888889, N
155124, 430.9, N
155457, 431.825, N
155777, 432.7138888888889, N
156079, 433.5527777777778, N
156391, 434.4194444444444, N
156691, 435.2527777777778, N
156989, 436.0805555555556, N
157305, 436.9583333333333, N
157632, 437.8666666666667, N
157948, 438.74444444444447, N
158251, 439.5861111111111, N
158553, 440.425, N
158848, 441.24444444444447, N
159143, 442.06388888888887, N
159458, 442.93888888888887, N
159783, 443.84166666666664, N
160112, 444.75555555555553, N
160422, 445.6166666666667, N
160733, 446.48055555555555, N
161051, 447.3638888888889, N
161365, 448.2361111111111, N
161692, 449.14444444444445, N
162023, 450.06388888888887, N
162360, 451.0, N
162676, 451.8777777777778, N
162978, 452.71666666666664, N
163292, 453.5888888888889, N
163598, 454.43888888888887, N
163906, 455.2944444444444, N
164223, 456.175, N
164535, 457.0416666666667, N
164828, 457.85555555555555, N
165118, 458.6611111111111, N
165416, 459.4888888888889, N
165720, 460.3333333333333, N
166028, 461.18888888888887, N
166345, 462.06944444444446, N
166661, 462.9472222222222, N
166965, 463.7916666666667, N
167254, 464.59444444444443, N
167547, 465.40833333333336, N
167862, 466.28333333333336, N
168174, 467.15, N
168483, 468.0083333333333, N
168792, 468.8666666666667, N
169106, 469.7388888888889, N
169409, 470.5805555555556, N
169706, 471.40555555555557, N
170022, 472.28333333333336, N
170349, 473.19166666666666, N
170665, 474.06944444444446, N
170985, 474.9583333333333, N
171291, 475.80833333333334, N
171592, 476.64444444444445, N
171887, 477.4638888888889, N
172189, 478.3027777777778, N
172519, 479.21944444444443, N
172836, 480.1, N
173143, 480.9527777777778, N
173455, 481.81944444444446, N
173764, 482.6777777777778, N
174067, 483.51944444444445, N
174370, 484.3611111111111, N
174697, 485.26944444444445, N
175014, 486.15, N
175321, 487.0027777777778, N
175620, 487.8333333333333, N
175914, 488.65, N
176212, 489.47777777777776, N
176508, 490.3, N
176818, 491.1611111111111, N
177135, 492.0416666666667, N
177443, 492.89722222222224, N
177738, 493.71666666666664, N
178027, 494.51944444444445, N
178317, 495.325, N
178608, 496.1333333333333, N
178903, 496.9527777777778, N
179213, 497.81388888888887, N
179525, 498.68055555555554, N
179820, 499.5, N
180121, 500.3361111111111, N
180425, 501.18055555555554, N
180738, 502.05, N
181058, 502.93888888888887, N
181379, 503.8305555555556, N
181713, 504.7583333333333, N
182028, 505.6333333333333, N
182325, 506.4583333333333, N
182633, 507.31388888888887, N
182948, 508.18888888888887, N
183263, 509.06388888888887, N
183579, 509.94166666666666, N
183907, 510.85277777777776, N
184210, 511.69444444444446, N
184504, 512.5111111111111, N
184805, 513.3472222222222, N
185111, 514.1972222222222, N
185434, 515.0944444444444, N
185750, 515.9722222222222, N
186062, 516.8388888888888, N
186372, 517.7, N
186668, 518.5222222222222, N
186973, 519.3694444444444, N
187281, 520.225, N
187606, 521.1277777777777, N
187927, 522.0194444444444, N
188237, 522.8805555555556, N
188551, 523.7527777777777, N
188850, 524.5833333333334, N
189142, 525.3944444444444, N
189449, 526.2472222222223, N
189770, 527.1388888888889, N
190089, 528.025, N
190403, 528.8972222222222, N
190718, 529.7722222222222, N
191025, 530.625, N
191334, 531.4833333333333, N
191650, 532.3611111111111, N
191975, 533.2638888888889, N
192316, 534.2111111111111, N
192634, 535.0944444444444, N
192942, 535.95, N
193256, 536.8222222222222, N
193567, 537.6861111111111, N
193890, 538.5833333333334, N
194221, 539.5027777777777, N
194561, 540.4472222222222, N
194885, 541.3472222222222, N
195190, 542.1944444444445, N
195515, 543.0972222222222, N
195829, 543.9694444444444, N
196152, 544.8666666666667, N
196483, 545.7861111111112, N
196816, 546.7111111111111, N
197134, 547.5944444444444, N
197437, 548.4361111111111, N
197749, 549.3027777777778, N
198061, 550.1694444444445, N
198371, 551.0305555555556, N
198694, 551.9277777777778, N
199015, 552.8194444444445, N
199322, 553.6722222222222, N
199619, 554.4972222222223, N
199922, 555.3388888888888, N
200230, 556.1944444444445, N
200549, 557.0805555555555, N
200871, 557.975, N
201187, 558.8527777777778, N
201502, 559.7277777777778, N
201800, 560.5555555555555, N
202100, 561.3888888888889, N
202422, 562.2833333333333, N
202740, 563.1666666666666, N
203061, 564.0583333333333, N
203376, 564.9333333333333, N
203688, 565.8, N
203989, 566.6361111111111, N
204277, 567.4361111111111, N
204583, 568.2861111111112, N
204904, 569.1777777777778, N
205216, 570.0444444444445, N
205527, 570.9083333333333, N
205837, 571.7694444444444, N
206145, 572.625, N
206452, 573.4777777777778, N
206764, 574.3444444444444, N
207090, 575.25, N
207406, 576.1277777777777, N
207719, 576.9972222222223, N
208022, 577.8388888888888, N
208327, 578.6861111111111, N
208619, 579.4972222222223, N
208918, 580.3277777777778, N
209242, 581.2277777777778, N
209554, 582.0944444444444, N
209855, 582.9305555555555, N
210151, 583.7527777777777, N
210440, 584.5555555555555, N
210736, 585.3777777777777, N
211030, 586.1944444444445, N
211325, 587.0138888888889, N
211636, 587.8777777777777, N
211931, 588.6972222222222, N
212213, 589.4805555555556, N
212493, 590.2583333333333, N
212775, 591.0416666666666, N
213063, 591.8416666666667, N
213358, 592.6611111111112, N
213662, 593.5055555555556, N
213973, 594.3694444444444, N
214271, 595.1972222222222, N
214561, 596.0027777777777, N
214851, 596.8083333333333, N
215152, 597.6444444444444, N
215457, 598.4916666666667, N
215766, 599.35, N
216093, 600.2583333333333, N
216405, 601.125, N
216703, 601.9527777777778, N
217000, 602.7777777777778, N
217300, 603.6111111111111, N
217618, 604.4944444444444, N
217933, 605.3694444444444, N
218254, 606.2611111111111, N
218579, 607.1638888888889, N
218876, 607.9888888888889, N
219171, 608.8083333333333, N
219471, 609.6416666666667, N
219785, 610.5138888888889, N
220099, 611.3861111111111, N
220406, 612.2388888888889, N
220728, 613.1333333333333, N
221032, 613.9777777777778, N
221318, 614.7722222222222, N
221616, 615.6, N
221928, 616.4666666666667, N
222246, 617.35, N
222560, 618.2222222222222, N
222879, 619.1083333333333, N
223184, 619.9555555555555, N
223480, 620.7777777777778, N
223780, 621.6111111111111, N
224086, 622.4611111111111, N
224414, 623.3722222222223, N
224729, 624.2472222222223, N
225036, 625.1, N
225348, 625.9666666666667, N
225642, 626.7833333333333, N
225933, 627.5916666666667, N
226235, 628.4305555555555, N
226549, 629.3027777777778, N
226860, 630.1666666666666, N
227158, 630.9944444444444, N
227451, 631.8083333333333, N
227750, 632.6388888888889, N
228034, 633.4277777777778, N
228321, 634.225, N
228630, 635.0833333333334, N
228951, 635.975, N
229266, 636.85, N
229561, 637.6694444444445, N
229862, 638.5055555555556, N
230163, 639.3416666666667, N
230458, 640.1611111111112, N
230761, 641.0027777777777, N
231070, 641.8611111111111, N
231380, 642.7222222222222, N
231674, 643.5388888888889, N
231963, 644.3416666666667, N
232264, 645.1777777777778, N
232563, 646.0083333333333, N
232874, 646.8722222222223, N
233201, 647.7805555555556, N
233525, 648.6805555555555, N
233855, 649.5972222222222, N
234152, 650.4222222222222, N
234468, 651.3, N
234783, 652.175, N
235100, 653.0555555555555, N
235422, 653.95, N
235736, 654.8222222222222, N
236048, 655.6888888888889, N
236345, 656.5138888888889, N
236643, 657.3416666666667, N
236955, 658.2083333333334, N
237267, 659.075, N
237581, 659.9472222222222, N
237894, 660.8166666666667, N
238202, 661.6722222222222, N
238493, 662.4805555555556, N
238784, 663.2888888888889, N
239097, 664.1583333333333, N
239411, 665.0305555555556, N
239722, 665.8944444444444, N
240034, 666.7611111111111, N
240344, 667.6222222222223, N
240644, 668.4555555555555, N
240938, 669.2722222222222, N
241247, 670.1305555555556, N
241570, 671.0277777777778, N
241889, 671.9138888888889, N
242210, 672.8055555555555, N
242516, 673.6555555555556, N
242818, 674.4944444444444, N
243109, 675.3027777777778, N
243403, 676.1194444444444, N
243724, 677.0111111111111, N
244040, 677.8888888888889, N
244343, 678.7305555555556, N
244650, 679.5833333333334, N
244953, 680.425, N
245256, 681.2666666666667, N
245560, 682.1111111111111, N
245881, 683.0027777777777, N
246207, 683.9083333333333, N
246520, 684.7777777777778, N
246824, 685.6222222222223, N
247122, 686.45, N
247423, 687.2861111111112, N
247719, 688.1083333333333, N
248029, 688.9694444444444, N
248360, 689.8888888888889, N
248675, 690.7638888888889, N
248979, 691.6083333333333, N
249282, 692.45, N
249595, 693.3194444444445, N
249915, 694.2083333333334, N
250236, 695.1, N
250574, 696.0388888888889, N
250901, 696.9472222222222, N
251206, 697.7944444444445, N
251508, 698.6333333333333, N
251812, 699.4777777777778, N
252128, 700.3555555555556, N
252449, 701.2472222222223, N
252777, 702.1583333333333, N
253100, 703.0555555555555, N
253404, 703.9, N
253704, 704.7333333333333, N
254009, 705.5805555555555, N
254323, 706.4527777777778, N
254637, 707.325, N
254952, 708.2, N
255274, 709.0944444444444, N
255571, 709.9194444444445, N
255865, 710.7361111111111, N
256163, 711.5638888888889, N
256478, 712.4388888888889, N
256797, 713.325, N
257116, 714.2111111111111, N
257440, 715.1111111111111, N
257749, 715.9694444444444, N
258047, 716.7972222222222, N
258359, 717.6638888888889, N
258670, 718.5277777777778, N
258996, 719.4333333333333, N
259313, 720.3138888888889, N
259622, 721.1722222222222, N
259933, 722.0361111111112, N
260229, 722.8583333333333, N
260524, 723.6777777777778, N
260835, 724.5416666666666, N
261159, 725.4416666666667, N
261476, 726.3222222222222, N
261785, 727.1805555555555, N
262095, 728.0416666666666, N
262388, 728.8555555555556, N
262680, 729.6666666666666, N
262985, 730.5138888888889, N
263303, 731.3972222222222, N
263624, 732.2888888888889, N
263928, 733.1333333333333, N
264231, 733.975, N
264536, 734.8222222222222, N
264837, 735.6583333333333, N
265147, 736.5194444444444, N
265471, 737.4194444444445, N
265804, 738.3444444444444, N
266120, 739.2222222222222, N
266419, 740.0527777777778, N
266733, 740.925, N
267034, 741.7611111111111, N
267334, 742.5944444444444, N
267649, 743.4694444444444, N
267969, 744.3583333333333, N
268281, 745.225, N
268576, 746.0444444444445, N
268872, 746.8666666666667, N
269172, 747.7, N
269468, 748.5222222222222, N
269778, 749.3833333333333, N
270094, 750.2611111111111, N
270411, 751.1416666666667, N
270704, 751.9555555555555, N
270991, 752.7527777777777, N
271297, 753.6027777777778, N
271604, 754.4555555555555, N
271912, 755.3111111111111, N
272226, 756.1833333333333, N
272540, 757.0555555555555, N
272844, 757.9, N
273137, 758.7138888888888, N
273441, 759.5583333333333, N
273756, 760.4333333333333, N
274070, 761.3055555555555, N
274396, 762.2111111111111, N
274717, 763.1027777777778, N
275032, 763.9777777777778, N
275331, 764.8083333333333, N
275630, 765.6388888888889, N
275961, 766.5583333333333, N
276292, 767.4777777777778, N
276598, 768.3277777777778, N
276904, 769.1777777777778, N
277205, 770.0138888888889, N
277490, 770.8055555555555, N
277772, 771.5888888888888, N
278078, 772.4388888888889, N
278396, 773.3222222222222, N
278716, 774.2111111111111, N
279033, 775.0916666666667, N
279342, 775.95, N
279658, 776.8277777777778, N
279967, 777.6861111111111, N
280298, 778.6055555555556, N
280637, 779.5472222222222, N
280965, 780.4583333333334, N
281292, 781.3666666666667, N
281607, 782.2416666666667, N
281925, 783.125, N
282242, 784.0055555555556, N
282568, 784.9111111111112, N
282910, 785.8611111111111, N
283232, 786.7555555555556, N
283550, 787.6388888888889, N
283863, 788.5083333333333, N
284181, 789.3916666666667, N
284495, 790.2638888888889, N
284823, 791.175, N
285162, 792.1166666666667, N
285486, 793.0166666666667, N
285793, 793.8694444444444, N
286102, 794.7277777777778, N
286421, 795.6138888888889, N
286739, 796.4972222222223, N
287063, 797.3972222222222, N
287403, 798.3416666666667, N
287720, 799.2222222222222, N
288026, 800.0722222222222, N
288332, 800.9222222222222, N
288651, 801.8083333333333, N
288977, 802.7138888888888, N
289305, 803.625, N
289644, 804.5666666666667, N
289962, 805.45, N
290263, 806.2861111111112, N
290570, 807.1388888888889, N
290877, 807.9916666666667, N
291198, 808.8833333333333, N
291520, 809.7777777777778, N
291844, 810.6777777777778, N
292163, 811.5638888888889, N
292460, 812.3888888888889, N
292763, 813.2305555555556, N
293077, 814.1027777777778, N
293407, 815.0194444444444, N
293731, 815.9194444444445, N
294049, 816.8027777777778, N
294368, 817.6888888888889, N
294667, 818.5194444444444, N
294959, 819.3305555555555, N
295262, 820.1722222222222, N
295589, 821.0805555555555, N
295907, 821.9638888888888, N
296216, 822.8222222222222, N
296533, 823.7027777777778, N
296836, 824.5444444444445, N
297132, 825.3666666666667, N
297440, 826.2222222222222, N
297758, 827.1055555555556, N
298087, 828.0194444444444, N
298407, 828.9083333333333, N
298715, 829.7638888888889, N
299026, 830.6277777777777, N
299326, 831.4611111111111, N
299642, 832.3388888888888, N
299970, 833.25, N
300302, 834.1722222222222, N
300618, 835.05, N
300924, 835.9, N
301235, 836.7638888888889, N
301537, 837.6027777777778, N
301842, 838.45, N
302165, 839.3472222222222, N
302498, 840.2722222222222, N
302813, 841.1472222222222, N
303116, 841.9888888888889, N
303434, 842.8722222222223, N
303740, 843.7222222222222, N
304051, 844.5861111111111, N
304373, 845.4805555555556, N
304704, 846.4, N
305026, 847.2944444444445, N
305330, 848.1388888888889, N
305644, 849.0111111111111, N
305964, 849.9, N
306286, 850.7944444444445, N
306622, 851.7277777777778, N
306954, 852.65, N
307281, 853.5583333333333, N
307579, 854.3861111111111, N
307882, 855.2277777777778, N
308196, 856.1, N
308511, 856.975, N
308831, 857.8638888888889, N
309151, 858.7527777777777, N
309469, 859.6361111111111, N
309769, 860.4694444444444, N
310075, 861.3194444444445, N
310399, 862.2194444444444, N
310725, 863.125, N
311052, 864.0333333333333, N
311380, 864.9444444444445, N
311703, 865.8416666666667, N
312020, 866.7222222222222, N
312326, 867.5722222222222, N
312660, 868.5, N
312986, 869.4055555555556, N
313315, 870.3194444444445, N
313661, 871.2805555555556, N
313992, 872.2, N
314315, 873.0972222222222, N
314629, 873.9694444444444, N
314969, 874.9138888888889, N
315305, 875.8472222222222, N
315631, 876.7527777777777, N
315955, 877.6527777777778, N
316272, 878.5333333333333, N
316576, 879.3777777777777, N
316895, 880.2638888888889, N
317237, 881.2138888888888, N
317574, 882.15, N
317902, 883.0611111111111, N
318221, 883.9472222222222, N
318549, 884.8583333333333, N
318869, 885.7472222222223, N
319185, 886.625, N
319527, 887.575, N
319854, 888.4833333333333, N
320172, 889.3666666666667, N
320481, 890.225, N
320796, 891.1, N
321115, 891.9861111111111, N
321437, 892.8805555555556, N
321780, 893.8333333333334, N
322111, 894.7527777777777, N
322420, 895.6111111111111, N
322730, 896.4722222222222, N
323039, 897.3305555555555, N
323354, 898.2055555555555, N
323680, 899.1111111111111, N
324020, 900.0555555555555, N
324351, 900.975, N
324657, 901.825, N
324957, 902.6583333333333, N
325262, 903.5055555555556, N
325565, 904.3472222222222, N
325860, 905.1666666666666, N
326159, 905.9972222222223, N
326465, 906.8472222222222, N
326757, 907.6583333333333, N
327043, 908.4527777777778, N
327337, 909.2694444444444, N
327650, 910.1388888888889, N
327977, 911.0472222222222, N
328298, 911.9388888888889, N
328634, 912.8722222222223, N
328957, 913.7694444444444, N
329267, 914.6305555555556, N
329581, 915.5027777777777, N
329903, 916.3972222222222, N
330241, 917.3361111111111, N
330565, 918.2361111111111, N
330883, 919.1194444444444, N
331191, 919.975, N
331477, 920.7694444444444, N
331771, 921.5861111111111, N
332077, 922.4361111111111, N
332397, 923.325, N
332717, 924.2138888888888, N
333032, 925.0888888888888, N
333352, 925.9777777777778, N
333657, 926.825, N
333961, 927.6694444444445, N
334278, 928.55, N
334612, 929.4777777777778, N
334931, 930.3638888888889, N
335231, 931.1972222222222, N
335543, 932.0638888888889, N
335842, 932.8944444444444, N
336145, 933.7361111111111, N
336463, 934.6194444444444, N
336787, 935.5194444444444, N
337119, 936.4416666666667, N
337434, 937.3166666666667, N
337743, 938.175, N
338057, 939.0472222222222, N
338367, 939.9083333333333, N
338700, 940.8333333333334, N
339032, 941.7555555555556, N
339368, 942.6888888888889, N
339698, 943.6055555555556, N
340017, 944.4916666666667, N
340348, 945.4111111111112, N
340677, 946.325, N
341013, 947.2583333333333, N
341351, 948.1972222222222, N
341689, 949.1361111111111, N
342002, 950.0055555555556, N
342323, 950.8972222222222, N
342645, 951.7916666666666, N
342973, 952.7027777777778, N
343307, 953.6305555555556, N
343638, 954.55, N
343967, 955.4638888888888, N
344277, 956.325, N
344588, 957.1888888888889, N
344902, 958.0611111111111, N
345218, 958.9388888888889, N
345547, 959.8527777777778, N
345865, 960.7361111111111, N
346181, 961.6138888888889, N
346481, 962.4472222222222, N
346778, 963.2722222222222, N
347093, 964.1472222222222, N
347417, 965.0472222222222, N
347741, 965.9472222222222, N
348076, 966.8777777777777, N
348411, 967.8083333333333, N
348733, 968.7027777777778, N
349051, 969.5861111111111, N
349391, 970.5305555555556, N
349726, 971.4611111111111, N
350058, 972.3833333333333, N
350382, 973.2833333333333, N
350698, 974.1611111111112, N
351003, 975.0083333333333, N
351305, 975.8472222222222, N
351637, 976.7694444444444, N
351959, 977.6638888888889, N
352273, 978.5361111111112, N
352584, 979.4, N
352891, 980.2527777777777, N
353193, 981.0916666666667, N
353494, 981.9277777777778, N
353814, 982.8166666666667, N
354143, 983.7305555555556, N
354464, 984.6222222222223, N
354777, 985.4916666666667, N
355080, 986.3333333333334, N
355385, 987.1805555555555, N
355690, 988.0277777777778, N
356005, 988.9027777777778, N
356337, 989.825, N
356658, 990.7166666666667, N
356969, 991.5805555555555, N
357269, 992.4138888888889, N
357583, 993.2861111111112, N
357890, 994.1388888888889, N
358205, 995.0138888888889, N
358545, 995.9583333333334, N
358864, 996.8444444444444, N
359174, 997.7055555555555, N
359477, 998.5472222222222, N
359785, 999.4027777777778, N
360099, 1000.275, N
360416, 1001.1555555555556, N
360752, 1002.0888888888888, N
361079, 1002.9972222222223, N
361394, 1003.8722222222223, N
361705, 1004.7361111111111, N
362015, 1005.5972222222222, N
362344, 1006.5111111111111, N
362671, 1007.4194444444445, N
363002, 1008.3388888888888, N
363333, 1009.2583333333333, N
363647, 1010.1305555555556, N
363957, 1010.9916666666667, N
364278, 1011.8833333333333, N
364608, 1012.8, N
364936, 1013.7111111111111, N
365272, 1014.6444444444444, N
365600, 1015.5555555555555, N
365905, 1016.4027777777778, N
366215, 1017.2638888888889, N
366534, 1018.15, N
366861, 1019.0583333333333, N
367179, 1019.9416666666667, N
367498, 1020.8277777777778, N
367811, 1021.6972222222222, N
368100, 1022.5, N
368394, 1023.3166666666667, N
368700, 1024.1666666666667, N
369021, 1025.0583333333334, N
369336, 1025.9333333333334, N
369647, 1026.7972222222222, N
369965, 1027.6805555555557, N
370266, 1028.5166666666667, N
370557, 1029.325, N
370862, 1030.1722222222222, N
371192, 1031.088888888889, N
371520, 1032.0, N
371843, 1032.8972222222221, N
372164, 1033.7888888888888, N
372474, 1034.65, N
372774, 1035.4833333333333, N
373084, 1036.3444444444444, N
373405, 1037.236111111111, N
373731, 1038.1416666666667, N
374038, 1038.9944444444445, N
374345, 1039.8472222222222, N
374653, 1040.7027777777778, N
374948, 1041.5222222222221, N
375253, 1042.3694444444445, N
375576, 1043.2666666666667, N
375901, 1044.1694444444445, N
376216, 1045.0444444444445, N
376519, 1045.8861111111112, N
376836, 1046.7666666666667, N
377141, 1047.6138888888888, N
377446, 1048.4611111111112, N
377772, 1049.3666666666666, N
378105, 1050.2916666666667, N
378423, 1051.175, N
378728, 1052.0222222222221, N
379042, 1052.8944444444444, N
379357, 1053.7694444444444, N
379673, 1054.6472222222221, N
380000, 1055.5555555555557, N
380329, 1056.4694444444444, N
380652, 1057.3666666666666, N
380953, 1058.2027777777778, N
381259, 1059.0527777777777, N
381567, 1059.9083333333333, N
381872, 1060.7555555555555, N
382194, 1061.65, N
382511, 1062.5305555555556, N
382829, 1063.4138888888888, N
383128, 1064.2444444444445, N
383420, 1065.0555555555557, N
383739, 1065.9416666666666, N
384058, 1066.8277777777778, N
384380, 1067.7222222222222, N
384707, 1068.6305555555555, N
385033, 1069.536111111111, N
385345, 1070.4027777777778, N
385647, 1071.2416666666666, N
385966, 1072.1277777777777, N
386291, 1073.0305555555556, N
386608, 1073.911111111111, N
386921, 1074.7805555555556, N
387232, 1075.6444444444444, N
387535, 1076.486111111111, N
387831, 1077.3083333333334, N
388142, 1078.1722222222222, N
388468, 1079.0777777777778, N
388786, 1079.9611111111112, N
389112, 1080.8666666666666, N
389426, 1081.7388888888888, N
389738, 1082.6055555555556, N
390036, 1083.4333333333334, N
390342, 1084.2833333333333, N
390676, 1085.2111111111112, N
390994, 1086.0944444444444, N
391302, 1086.95, N
391603, 1087.786111111111, N
391897, 1088.6027777777779, N
392193, 1089.425, N
392322, 1089.7833333333333, ~
392477, 1090.213888888889, N
392768, 1091.0222222222221, N
393055, 1091.8194444444443, N
393325, 1092.5694444444443, N
393583, 1093.286111111111, N
393832, 1093.9777777777779, N
394080, 1094.6666666666667, N
394327, 1095.3527777777779, N
394566, 1096.0166666666667, N
394809, 1096.6916666666666, N
395066, 1097.4055555555556, N
395320, 1098.111111111111, N
395437, 1098.4361111111111, ~
395567, 1098.7972222222222, N
395804, 1099.4555555555555, N
396037, 1100.1027777777779, N
396273, 1100.7583333333334, N
396518, 1101.4388888888889, N
396761, 1102.1138888888888, N
397014, 1102.8166666666666, N
397286, 1103.5722222222223, N
397569, 1104.3583333333333, N
397845, 1105.125, N
398111, 1105.8638888888888, N
398385, 1106.625, N
398671, 1107.4194444444445, N
398968, 1108.2444444444445, N
399274, 1109.0944444444444, N
399588, 1109.9666666666667, N
399910, 1110.861111111111, N
400218, 1111.7166666666667, N
400521, 1112.5583333333334, N
400829, 1113.4138888888888, N
401157, 1114.325, N
401487, 1115.2416666666666, N
401827, 1116.1861111111111, N
402164, 1117.1222222222223, N
402481, 1118.0027777777777, N
402803, 1118.8972222222221, N
403132, 1119.8111111111111, N
403475, 1120.763888888889, N
403809, 1121.6916666666666, N
404150, 1122.638888888889, N
404482, 1123.5611111111111, N
404792, 1124.4222222222222, N
405100, 1125.2777777777778, N
405404, 1126.1222222222223, N
405724, 1127.0111111111112, N
406044, 1127.9, N
406357, 1128.7694444444444, N
406685, 1129.6805555555557, N
406993, 1130.536111111111, N
407303, 1131.3972222222221, N
407627, 1132.2972222222222, N
407954, 1133.2055555555555, N
408286, 1134.1277777777777, N
408614, 1135.0388888888888, N
408936, 1135.9333333333334, N
409229, 1136.7472222222223, N
409520, 1137.5555555555557, N
409830, 1138.4166666666667, N
410173, 1139.3694444444445, N
410497, 1140.2694444444444, N
410816, 1141.1555555555556, N
411140, 1142.0555555555557, N
411454, 1142.9277777777777, N
411755, 1143.763888888889, N
412068, 1144.6333333333334, N
412402, 1145.5611111111111, N
412731, 1146.475, N
413022, 1147.2833333333333, N
413301, 1148.0583333333334, N
413367, 1148.2416666666666, ~
413576, 1148.8222222222223, N
413836, 1149.5444444444445, N
414092, 1150.2555555555555, N
414360, 1151.0, N
414630, 1151.75, N
414903, 1152.5083333333334, N
415166, 1153.2388888888888, N
415421, 1153.9472222222223, N
415687, 1154.6861111111111, N
415951, 1155.4194444444445, N
416216, 1156.1555555555556, N
416500, 1156.9444444444443, N
416790, 1157.75, N
417092, 1158.588888888889, N
417392, 1159.4222222222222, N
417689, 1160.2472222222223, N
417997, 1161.1027777777779, N
418275, 1161.875, A
418638, 1162.8833333333334, N
418976, 1163.8222222222223, N
419305, 1164.736111111111, N
419627, 1165.6305555555555, N
419931, 1166.475, N
420249, 1167.3583333333333, N
420574, 1168.2611111111112, N
420894, 1169.15, N
421234, 1170.0944444444444, N
421564, 1171.0111111111112, N
421882, 1171.8944444444444, N
422192, 1172.7555555555555, N
422512, 1173.6444444444444, N
422843, 1174.5638888888889, N
423172, 1175.4777777777779, N
423513, 1176.425, N
423842, 1177.338888888889, N
424160, 1178.2222222222222, N
424467, 1179.075, N
424779, 1179.9416666666666, N
425101, 1180.8361111111112, N
425420, 1181.7222222222222, N
425740, 1182.611111111111, N
426054, 1183.4833333333333, N
426367, 1184.3527777777779, N
426677, 1185.213888888889, N
426998, 1186.1055555555556, N
427345, 1187.0694444444443, N
427678, 1187.9944444444445, N
428020, 1188.9444444444443, N
428344, 1189.8444444444444, N
428666, 1190.7388888888888, N
428983, 1191.6194444444445, N
429316, 1192.5444444444445, N
429671, 1193.5305555555556, N
430000, 1194.4444444444443, N
430334, 1195.3722222222223, N
430653, 1196.2583333333334, N
430974, 1197.15, N
431287, 1198.0194444444444, N
431617, 1198.9361111111111, N
431958, 1199.8833333333334, N
432284, 1200.7888888888888, N
432586, 1201.6277777777777, N
432867, 1202.4083333333333, N
433139, 1203.1638888888888, N
433405, 1203.9027777777778, N
433671, 1204.6416666666667, N
433958, 1205.4388888888889, N
434246, 1206.2388888888888, N
434530, 1207.0277777777778, N
434808, 1207.8, N
435081, 1208.5583333333334, N
435359, 1209.3305555555555, N
435636, 1210.1, N
435911, 1210.8638888888888, N
436197, 1211.6583333333333, N
436484, 1212.4555555555555, N
436751, 1213.1972222222223, N
437003, 1213.8972222222221, N
437256, 1214.6, N
437512, 1215.3111111111111, N
437775, 1216.0416666666667, N
438038, 1216.7722222222221, N
438305, 1217.513888888889, N
438589, 1218.3027777777777, N
438866, 1219.0722222222223, N
439133, 1219.8138888888889, N
439404, 1220.5666666666666, N
439683, 1221.3416666666667, N
439977, 1222.1583333333333, N
440272, 1222.9777777777779, N
440572, 1223.8111111111111, N
440893, 1224.7027777777778, N
441202, 1225.5611111111111, N
441506, 1226.4055555555556, N
441812, 1227.2555555555555, N
442135, 1228.1527777777778, N
442478, 1229.1055555555556, N
442812, 1230.0333333333333, N
443152, 1230.9777777777779, N
443478, 1231.8833333333334, N
443786, 1232.7388888888888, N
444100, 1233.611111111111, N
444431, 1234.5305555555556, N
444773, 1235.4805555555556, N
445105, 1236.4027777777778, N
445449, 1237.3583333333333, N
445776, 1238.2666666666667, N
446085, 1239.125, N
446406, 1240.0166666666667, N
446743, 1240.9527777777778, N
447076, 1241.8777777777777, N
447405, 1242.7916666666667, N
447735, 1243.7083333333333, N
448047, 1244.575, N
448354, 1245.4277777777777, N
448671, 1246.3083333333334, N
449005, 1247.236111111111, N
449335, 1248.1527777777778, N
449651, 1249.0305555555556, N
449969, 1249.9138888888888, N
450277, 1250.7694444444444, N
450577, 1251.6027777777779, N
450894, 1252.4833333333333, N
451212, 1253.3666666666666, N
451535, 1254.263888888889, N
451845, 1255.125, N
452143, 1255.9527777777778, N
452451, 1256.8083333333334, N
452746, 1257.6277777777777, N
453036, 1258.4333333333334, N
453347, 1259.2972222222222, N
453672, 1260.2, N
453984, 1261.0666666666666, N
454277, 1261.8805555555555, N
454583, 1262.7305555555556, N
454890, 1263.5833333333333, N
455197, 1264.4361111111111, N
455516, 1265.3222222222223, N
455843, 1266.2305555555556, N
456173, 1267.1472222222221, N
456481, 1268.0027777777777, N
456798, 1268.8833333333334, N
457116, 1269.7666666666667, N
457443, 1270.675, N
457787, 1271.6305555555555, N
458118, 1272.55, N
458452, 1273.4777777777779, N
458769, 1274.3583333333333, N
459090, 1275.25, N
459418, 1276.161111111111, N
459754, 1277.0944444444444, N
460097, 1278.0472222222222, N
460437, 1278.9916666666666, N
460763, 1279.8972222222221, N
461078, 1280.7722222222221, N
461402, 1281.6722222222222, N
461737, 1282.6027777777779, N
462063, 1283.5083333333334, N
462387, 1284.4083333333333, N
462712, 1285.3111111111111, N
463032, 1286.2, N
463341, 1287.0583333333334, N
463668, 1287.9666666666667, N
464003, 1288.8972222222221, N
464340, 1289.8333333333333, N
464671, 1290.7527777777777, N
464988, 1291.6333333333334, N
465296, 1292.4888888888888, N
465595, 1293.3194444444443, N
465913, 1294.2027777777778, N
466236, 1295.1, N
466554, 1295.9833333333333, N
466874, 1296.8722222222223, N
467180, 1297.7222222222222, N
467480, 1298.5555555555557, N
467767, 1299.3527777777779, N
468058, 1300.161111111111, N
468219, 1300.6083333333333, ~
468376, 1301.0444444444445, N
468695, 1301.9305555555557, N
468997, 1302.7694444444444, N
469298, 1303.6055555555556, N
469606, 1304.4611111111112, N
469910, 1305.3055555555557, N
470220, 1306.1666666666667, N
470561, 1307.1138888888888, N
470900, 1308.0555555555557, N
471221, 1308.9472222222223, N
471534, 1309.8166666666666, N
471844, 1310.6777777777777, N
472154, 1311.5388888888888, N
472462, 1312.3944444444444, N
472791, 1313.3083333333334, N
473113, 1314.2027777777778, N
473413, 1315.036111111111, N
473715, 1315.875, N
474014, 1316.7055555555555, N
474316, 1317.5444444444445, N
474614, 1318.3722222222223, N
474920, 1319.2222222222222, N
475247, 1320.1305555555555, N
475560, 1321.0, N
475855, 1321.8194444444443, N
476160, 1322.6666666666667, N
476486, 1323.5722222222223, N
476788, 1324.411111111111, N
477079, 1325.2194444444444, N
477378, 1326.05, N
477663, 1326.8416666666667, N
477931, 1327.5861111111112, N
478193, 1328.3138888888889, N
478385, 1328.8472222222222, ~
478450, 1329.0277777777778, N
478718, 1329.7722222222221, N
478988, 1330.5222222222221, N
479258, 1331.2722222222221, N
479537, 1332.0472222222222, N
479826, 1332.85, N
480098, 1333.6055555555556, N
480367, 1334.3527777777779, N
480651, 1335.1416666666667, N
480948, 1335.9666666666667, N
481259, 1336.8305555555555, N
481577, 1337.713888888889, N
481908, 1338.6333333333334, N
482236, 1339.5444444444445, N
482543, 1340.3972222222221, N
482862, 1341.2833333333333, N
483186, 1342.1833333333334, N
483516, 1343.1, N
483848, 1344.0222222222221, N
484183, 1344.9527777777778, N
484510, 1345.861111111111, N
484820, 1346.7222222222222, N
485128, 1347.5777777777778, N
485440, 1348.4444444444443, N
485774, 1349.3722222222223, N
486095, 1350.263888888889, N
486422, 1351.1722222222222, N
486747, 1352.075, N
487058, 1352.9388888888889, N
487382, 1353.838888888889, N
487721, 1354.7805555555556, N
488070, 1355.75, N
488407, 1356.6861111111111, N
488741, 1357.6138888888888, N
489066, 1358.5166666666667, N
489377, 1359.3805555555555, N
489639, 1360.1083333333333, A
490041, 1361.225, N
490395, 1362.2083333333333, N
490727, 1363.1305555555555, N
491053, 1364.036111111111, N
491375, 1364.9305555555557, N
491695, 1365.8194444444443, N
492019, 1366.7194444444444, N
492344, 1367.6222222222223, N
492677, 1368.5472222222222, N
492984, 1369.4, N
493285, 1370.236111111111, N
493592, 1371.088888888889, N
493895, 1371.9305555555557, N
494218, 1372.8277777777778, N
494541, 1373.725, N
494875, 1374.6527777777778, N
495194, 1375.5388888888888, N
495503, 1376.3972222222221, N
495817, 1377.2694444444444, N
496127, 1378.1305555555555, N
496456, 1379.0444444444445, N
496793, 1379.9805555555556, N
497122, 1380.8944444444444, N
497433, 1381.7583333333334, N
497740, 1382.611111111111, N
498053, 1383.4805555555556, N
498361, 1384.3361111111112, N
498675, 1385.2083333333333, N
499001, 1386.1138888888888, N
499337, 1387.0472222222222, N
499645, 1387.9027777777778, N
499949, 1388.7472222222223, N
500275, 1389.6527777777778, N
500594, 1390.5388888888888, N
500915, 1391.4305555555557, N
501237, 1392.325, N
501567, 1393.2416666666666, N
501881, 1394.1138888888888, N
502186, 1394.9611111111112, N
502521, 1395.8916666666667, N
502863, 1396.8416666666667, N
503191, 1397.7527777777777, N
503524, 1398.6777777777777, N
503856, 1399.6, N
504174, 1400.4833333333333, N
504488, 1401.3555555555556, N
504819, 1402.275, N
505157, 1403.213888888889, N
505487, 1404.1305555555555, N
505816, 1405.0444444444445, N
506138, 1405.9388888888889, N
506449, 1406.8027777777777, N
506765, 1407.6805555555557, N
507098, 1408.6055555555556, N
507429, 1409.525, N
507751, 1410.4194444444445, N
508068, 1411.3, N
508379, 1412.1638888888888, N
508679, 1412.9972222222223, N
508973, 1413.8138888888889, N
509293, 1414.7027777777778, N
509614, 1415.5944444444444, N
509930, 1416.4722222222222, N
510252, 1417.3666666666666, N
510564, 1418.2333333333333, N
510878, 1419.1055555555556, N
511194, 1419.9833333333333, N
511530, 1420.9166666666667, N
511871, 1421.8638888888888, N
512190, 1422.75, N
512504, 1423.6222222222223, N
512807, 1424.463888888889, N
513112, 1425.3111111111111, N
513402, 1426.1166666666666, N
513695, 1426.9305555555557, N
514002, 1427.7833333333333, N
514308, 1428.6333333333334, N
514607, 1429.463888888889, N
514908, 1430.3, N
515233, 1431.2027777777778, N
515562, 1432.1166666666666, N
515896, 1433.0444444444445, N
516261, 1434.0583333333334, N
516612, 1435.0333333333333, N
516934, 1435.9277777777777, N
517252, 1436.8111111111111, N
517586, 1437.7388888888888, N
517920, 1438.6666666666667, N
518252, 1439.588888888889, N
518595, 1440.5416666666667, N
518918, 1441.4388888888889, N
519223, 1442.286111111111, N
519534, 1443.15, N
519857, 1444.0472222222222, N
520183, 1444.9527777777778, N
520509, 1445.8583333333333, N
520850, 1446.8055555555557, N
521166, 1447.6833333333334, N
521469, 1448.525, N
521775, 1449.375, N
522099, 1450.275, N
522422, 1451.1722222222222, N
522729, 1452.025, N
523045, 1452.9027777777778, N
523341, 1453.725, N
523628, 1454.5222222222221, N
523922, 1455.338888888889, N
524220, 1456.1666666666667, N
524546, 1457.0722222222223, N
524872, 1457.9777777777779, N
525198, 1458.8833333333334, N
525511, 1459.7527777777777, N
525806, 1460.5722222222223, N
526115, 1461.4305555555557, N
526437, 1462.325, N
526768, 1463.2444444444445, N
527099, 1464.1638888888888, N
527428, 1465.0777777777778, N
527750, 1465.9722222222222, N
528042, 1466.7833333333333, N
528344, 1467.6222222222223, N
528657, 1468.4916666666666, N
528994, 1469.4277777777777, N
529319, 1470.3305555555555, N
529644, 1471.2333333333333, N
529977, 1472.1583333333333, N
530293, 1473.036111111111, N
530607, 1473.9083333333333, N
530937, 1474.825, N
531286, 1475.7944444444445, N
531619, 1476.7194444444444, N
531939, 1477.6083333333333, N
532270, 1478.5277777777778, N
532588, 1479.411111111111, N
532911, 1480.3083333333334, N
533251, 1481.2527777777777, N
533600, 1482.2222222222222, N
533936, 1483.1555555555556, N
534253, 1484.036111111111, N
534579, 1484.9416666666666, N
534892, 1485.8111111111111, N
535215, 1486.7083333333333, N
535546, 1487.6277777777777, N
535870, 1488.5277777777778, N
536176, 1489.3777777777777, N
536481, 1490.225, N
536801, 1491.1138888888888, N
537119, 1491.9972222222223, N
537454, 1492.9277777777777, N
537778, 1493.8277777777778, N
538101, 1494.725, N
538399, 1495.5527777777777, N
538679, 1496.3305555555555, N
538975, 1497.1527777777778, N
539263, 1497.9527777777778, N
539558, 1498.7722222222221, N
539872, 1499.6444444444444, N
540196, 1500.5444444444445, N
540516, 1501.4333333333334, N
540826, 1502.2944444444445, N
541143, 1503.175, N
541472, 1504.088888888889, N
541804, 1505.0111111111112, N
542144, 1505.9555555555555, N
542481, 1506.8916666666667, N
542804, 1507.7888888888888, N
543114, 1508.65, N
543435, 1509.5416666666667, N
543756, 1510.4333333333334, N
544081, 1511.3361111111112, N
544413, 1512.2583333333334, N
544737, 1513.1583333333333, N
545050, 1514.0277777777778, N
545355, 1514.875, N
545670, 1515.75, N
546002, 1516.6722222222222, N
546331, 1517.5861111111112, N
546668, 1518.5222222222221, N
546989, 1519.4138888888888, N
547309, 1520.3027777777777, N
547621, 1521.1694444444445, N
547935, 1522.0416666666667, N
548269, 1522.9694444444444, N
548595, 1523.875, N
548917, 1524.7694444444444, N
549234, 1525.65, N
549553, 1526.536111111111, N
549858, 1527.3833333333334, N
550172, 1528.2555555555555, N
550506, 1529.1833333333334, N
550836, 1530.1, N
551160, 1531.0, N
551469, 1531.8583333333333, N
551779, 1532.7194444444444, N
552084, 1533.5666666666666, N
552394, 1534.4277777777777, N
552729, 1535.3583333333333, N
553047, 1536.2416666666666, N
553358, 1537.1055555555556, N
553662, 1537.95, N
553965, 1538.7916666666667, N
554267, 1539.6305555555555, N
554576, 1540.4888888888888, N
554914, 1541.4277777777777, N
555239, 1542.3305555555555, N
555544, 1543.1777777777777, N
555848, 1544.0222222222221, N
556160, 1544.888888888889, N
556476, 1545.7666666666667, N
556796, 1546.6555555555556, N
557140, 1547.611111111111, N
557481, 1548.5583333333334, N
557813, 1549.4805555555556, N
558132, 1550.3666666666666, N
558460, 1551.2777777777778, N
558791, 1552.1972222222223, N
559116, 1553.1, N
559464, 1554.0666666666666, N
559797, 1554.9916666666666, N
560106, 1555.85, N
560403, 1556.675, N
560711, 1557.5305555555556, N
561033, 1558.425, N
561356, 1559.3222222222223, N
561682, 1560.2277777777779, N
562007, 1561.1305555555555, N
562313, 1561.9805555555556, N
562621, 1562.8361111111112, N
562927, 1563.6861111111111, N
563240, 1564.5555555555557, N
563558, 1565.4388888888889, N
563881, 1566.3361111111112, N
564201, 1567.225, N
564507, 1568.075, N
564818, 1568.9388888888889, N
565126, 1569.7944444444445, N
565454, 1570.7055555555555, N
565779, 1571.6083333333333, N
566114, 1572.5388888888888, N
566445, 1573.4583333333333, N
566751, 1574.3083333333334, N
567063, 1575.175, N
567385, 1576.0694444444443, N
567724, 1577.0111111111112, N
568051, 1577.9194444444445, N
568379, 1578.8305555555555, N
568707, 1579.7416666666666, N
569007, 1580.575, N
569307, 1581.4083333333333, N
569622, 1582.2833333333333, N
569950, 1583.1944444444443, N
570273, 1584.0916666666667, N
570587, 1584.963888888889, N
570907, 1585.8527777777779, N
571214, 1586.7055555555555, N
571512, 1587.5333333333333, N
571815, 1588.375, N
572136, 1589.2666666666667, N
572457, 1590.1583333333333, N
572760, 1591.0, N
573064, 1591.8444444444444, N
573358, 1592.661111111111, N
573653, 1593.4805555555556, N
573963, 1594.3416666666667, N
574285, 1595.236111111111, N
574613, 1596.1472222222221, N
574928, 1597.0222222222221, N
575228, 1597.8555555555556, N
575535, 1598.7083333333333, N
575835, 1599.5416666666667, N
576150, 1600.4166666666667, N
576473, 1601.3138888888889, N
576799, 1602.2194444444444, N
577113, 1603.0916666666667, N
577420, 1603.9444444444443, N
577736, 1604.8222222222223, N
578052, 1605.7, N
578369, 1606.5805555555555, N
578709, 1607.525, N
579055, 1608.486111111111, N
579374, 1609.3722222222223, N
579681, 1610.225, N
580008, 1611.1333333333334, N
580321, 1612.0027777777777, N
580629, 1612.8583333333333, N
580943, 1613.7305555555556, N
581264, 1614.6222222222223, N
581575, 1615.486111111111, N
581868, 1616.3, N
582179, 1617.1638888888888, N
582496, 1618.0444444444445, N
582814, 1618.9277777777777, N
583140, 1619.8333333333333, N
583463, 1620.7305555555556, N
583779, 1621.6083333333333, N
584080, 1622.4444444444443, N
584389, 1623.3027777777777, N
584705, 1624.1805555555557, N
585030, 1625.0833333333333, N
585364, 1626.0111111111112, N
585697, 1626.9361111111111, N
586021, 1627.8361111111112, N
586334, 1628.7055555555555, N
586656, 1629.6, N
586984, 1630.5111111111112, N
587314, 1631.4277777777777, N
587646, 1632.35, N
587964, 1633.2333333333333, N
588280, 1634.111111111111, N
588583, 1634.9527777777778, N
588897, 1635.825, N
589228, 1636.7444444444445, N
589548, 1637.6333333333334, N
589874, 1638.5388888888888, N
590196, 1639.4333333333334, N
590507, 1640.2972222222222, N
590808, 1641.1333333333334, N
591118, 1641.9944444444445, N
591455, 1642.9305555555557, N
591786, 1643.85, N
592114, 1644.7611111111112, N
592439, 1645.6638888888888, N
592762, 1646.5611111111111, N
593072, 1647.4222222222222, N
593396, 1648.3222222222223, N
593735, 1649.263888888889, N
594069, 1650.1916666666666, N
594399, 1651.1083333333333, N
594717, 1651.9916666666666, N
594882, 1652.45, ~
595029, 1652.8583333333333, N
595333, 1653.7027777777778, N
595645, 1654.5694444444443, N
595978, 1655.4944444444445, N
596298, 1656.3833333333334, N
596611, 1657.2527777777777, N
596918, 1658.1055555555556, N
597223, 1658.9527777777778, N
597530, 1659.8055555555557, N
597846, 1660.6833333333334, N
598184, 1661.6222222222223, N
598508, 1662.5222222222221, N
598818, 1663.3833333333334, N
599129, 1664.2472222222223, N
599445, 1665.125, N
599758, 1665.9944444444445, N
600080, 1666.888888888889, N
600425, 1667.8472222222222, N
600755, 1668.763888888889, N
601081, 1669.6694444444445, N
601392, 1670.5333333333333, N
601717, 1671.4361111111111, N
602053, 1672.3694444444445, N
602388, 1673.3, N
602740, 1674.2777777777778, N
603071, 1675.1972222222223, N
603383, 1676.0638888888889, N
603698, 1676.9388888888889, N
604022, 1677.838888888889, N
604345, 1678.736111111111, N
604665, 1679.625, N
605001, 1680.5583333333334, N
605321, 1681.4472222222223, N
605619, 1682.275, N
605927, 1683.1305555555555, N
606246, 1684.0166666666667, N
606574, 1684.9277777777777, N
606908, 1685.8555555555556, N
607245, 1686.7916666666667, N
607561, 1687.6694444444445, N
607866, 1688.5166666666667, N
608175, 1689.375, N
608502, 1690.2833333333333, N
608832, 1691.2, N
609150, 1692.0833333333333, N
609482, 1693.0055555555555, N
609788, 1693.8555555555556, N
610083, 1694.675, N
610381, 1695.5027777777777, N
610679, 1696.3305555555555, N
610999, 1697.2194444444444, N
611311, 1698.0861111111112, N
611625, 1698.9583333333333, N
611953, 1699.8694444444445, N
612261, 1700.725, N
612570, 1701.5833333333333, N
612894, 1702.4833333333333, N
613236, 1703.4333333333334, N
613564, 1704.3444444444444, N
613885, 1705.236111111111, N
614208, 1706.1333333333334, N
614519, 1706.9972222222223, N
614836, 1707.8777777777777, N
615164, 1708.7888888888888, N
615506, 1709.7388888888888, N
615830, 1710.638888888889, N
616145, 1711.513888888889, N
616460, 1712.388888888889, N
616765, 1713.236111111111, N
617082, 1714.1166666666666, N
617416, 1715.0444444444445, N
617762, 1716.0055555555555, N
618099, 1716.9416666666666, N
618420, 1717.8333333333333, N
618746, 1718.7388888888888, N
619060, 1719.611111111111, N
619385, 1720.513888888889, N
619722, 1721.45, N
620066, 1722.4055555555556, N
620389, 1723.3027777777777, N
620706, 1724.1833333333334, N
621028, 1725.0777777777778, N
621344, 1725.9555555555555, N
621677, 1726.8805555555555, N
622014, 1727.8166666666666, N
622354, 1728.7611111111112, N
622667, 1729.6305555555555, N
622975, 1730.486111111111, N
623287, 1731.3527777777779, N
623587, 1732.1861111111111, N
623895, 1733.0416666666667, N
624197, 1733.8805555555555, N
624501, 1734.725, N
624796, 1735.5444444444445, N
625083, 1736.3416666666667, N
625386, 1737.1833333333334, N
625692, 1738.0333333333333, N
626012, 1738.9222222222222, N
626347, 1739.8527777777779, N
626681, 1740.7805555555556, N
626996, 1741.6555555555556, N
627303, 1742.5083333333334, N
627622, 1743.3944444444444, N
627954, 1744.3166666666666, N
628286, 1745.2388888888888, N
628622, 1746.1722222222222, N
628961, 1747.1138888888888, N
629281, 1748.0027777777777, N
629584, 1748.8444444444444, N
629907, 1749.7416666666666, N
630233, 1750.6472222222221, N
630559, 1751.5527777777777, N
630884, 1752.4555555555555, N
631202, 1753.338888888889, N
631514, 1754.2055555555555, N
631814, 1755.0388888888888, N
632127, 1755.9083333333333, N
632448, 1756.8, N
632764, 1757.6777777777777, N
633084, 1758.5666666666666, N
633390, 1759.4166666666667, N
633686, 1760.2388888888888, N
633977, 1761.0472222222222, N
634278, 1761.8833333333334, N
634602, 1762.7833333333333, N
634932, 1763.7, N
635265, 1764.625, N
635594, 1765.5388888888888, N
635920, 1766.4444444444443, N
636238, 1767.3277777777778, N
636570, 1768.25, N
636923, 1769.2305555555556, N
637264, 1770.1777777777777, N
637604, 1771.1222222222223, N
637931, 1772.0305555555556, N
638262, 1772.95, N
638585, 1773.8472222222222, N
638923, 1774.786111111111, N
639267, 1775.7416666666666, N
639597, 1776.6583333333333, N
639923, 1777.5638888888889, N
640237, 1778.4361111111111, N
640554, 1779.3166666666666, N
640869, 1780.1916666666666, N
641198, 1781.1055555555556, N
641531, 1782.0305555555556, N
641850, 1782.9166666666667, N
642159, 1783.775, N
642463, 1784.6194444444445, N
642777, 1785.4916666666666, N
643088, 1786.3555555555556, N
643413, 1787.2583333333334, N
643744, 1788.1777777777777, N
644059, 1789.0527777777777, N
644364, 1789.9, N
644668, 1790.7444444444445, N
644981, 1791.6138888888888, N
645287, 1792.463888888889, N
645602, 1793.338888888889, N
645947, 1794.2972222222222, N
646269, 1795.1916666666666, N
646576, 1796.0444444444445, N
646891, 1796.9194444444445, N
647215, 1797.8194444444443, N
647546, 1798.7388888888888, N
647879, 1799.6638888888888, N
648227, 1800.6305555555555, N
648557, 1801.5472222222222, N
648872, 1802.4222222222222, N
649195, 1803.3194444444443, N
649534, 1804.2611111111112, N
649875, 1805.2083333333333, N
