36, 0.1, +
73, 0.20277777777777778, /
316, 0.8777777777777778, /
615, 1.7083333333333333, /
901, 2.5027777777777778, /
1188, 3.3, /
1477, 4.102777777777778, f
1749, 4.858333333333333, f
2062, 5.727777777777778, /
2361, 6.558333333333334, /
2651, 7.363888888888889, /
2942, 8.172222222222222, /
3232, 8.977777777777778, /
3522, 9.783333333333333, f
3796, 10.544444444444444, f
4102, 11.394444444444444, /
4407, 12.241666666666667, /
4704, 13.066666666666666, /
4995, 13.875, /
5281, 14.669444444444444, /
5569, 15.469444444444445, f
5873, 16.31388888888889, f
6143, 17.06388888888889, /
6451, 17.919444444444444, /
6744, 18.733333333333334, /
7042, 19.56111111111111, /
7332, 20.366666666666667, /
7556, 20.988888888888887, ~
7619, 21.163888888888888, f
7921, 22.002777777777776, f
8184, 22.733333333333334, /
8496, 23.6, /
8765, 24.34722222222222, ~
8794, 24.427777777777777, /
9088, 25.244444444444444, /
9378, 26.05, /
9678, 26.883333333333333, f
9951, 27.641666666666666, f
10232, 28.42222222222222, /
10533, 29.258333333333333, /
10839, 30.108333333333334, /
11135, 30.930555555555557, /
11434, 31.761111111111113, f
11725, 32.56944444444444, f
12040, 33.44444444444444, f
12287, 34.13055555555555, /
12575, 34.93055555555556, /
12885, 35.791666666666664, /
13185, 36.625, /
13479, 37.44166666666667, /
13783, 38.28611111111111, f
14059, 39.05277777777778, f
14339, 39.830555555555556, /
14617, 40.602777777777774, /
14930, 41.47222222222222, /
15233, 42.31388888888889, /
15525, 43.125, /
15816, 43.93333333333333, f
16118, 44.772222222222226, f
16390, 45.52777777777778, /
16671, 46.30833333333333, /
16967, 47.13055555555555, /
17274, 47.983333333333334, /
17571, 48.80833333333333, /
17869, 49.63611111111111, /
18171, 50.475, f
18444, 51.233333333333334, f
18724, 52.01111111111111, /
19008, 52.8, /
19318, 53.66111111111111, /
19616, 54.48888888888889, /
19910, 55.30555555555556, /
20189, 56.080555555555556, f
20492, 56.922222222222224, f
20804, 57.78888888888889, f
21056, 58.48888888888889, /
21362, 59.33888888888889, /
21668, 60.18888888888889, /
21959, 60.99722222222222, /
22109, 61.41388888888889, ~
22249, 61.80277777777778, /
22390, 62.19444444444444, +
22532, 62.58888888888889, Q
22828, 63.41111111111111, Q
23101, 64.16944444444445, Q
23249, 64.58055555555555, +
23398, 64.99444444444444, /
23701, 65.83611111111111, /
23890, 66.36111111111111, ~
23998, 66.66111111111111, /
24300, 67.5, /
24590, 68.30555555555556, /
24877, 69.10277777777777, f
25178, 69.93888888888888, f
25440, 70.66666666666667, /
25747, 71.51944444444445, /
26048, 72.35555555555555, /
26341, 73.16944444444445, /
26634, 73.98333333333333, /
26926, 74.79444444444445, /
27184, 75.5111111111111, N
27489, 76.35833333333333, f
27778, 77.16111111111111, f
28084, 78.0111111111111, /
28380, 78.83333333333333, /
28675, 79.65277777777777, /
28963, 80.45277777777778, /
29250, 81.25, /
29519, 81.99722222222222, f
29812, 82.81111111111112, f
30144, 83.73333333333333, f
30421, 84.50277777777778, f
30719, 85.33055555555555, /
31012, 86.14444444444445, /
31302, 86.95, /
31580, 87.72222222222223, /
31861, 88.50277777777778, /
32168, 89.35555555555555, /
32306, 89.7388888888889, +
32445, 90.125, N
32734, 90.92777777777778, N
33059, 91.83055555555555, f
33332, 92.58888888888889, f
33475, 92.98611111111111, +
33618, 93.38333333333334, /
33896, 94.15555555555555, /
34194, 94.98333333333333, /
34498, 95.82777777777778, /
34794, 96.65, /
35091, 97.475, /
35359, 98.21944444444445, N
35661, 99.05833333333334, f
35938, 99.82777777777778, f
36225, 100.625, /
36529, 101.46944444444445, /
36827, 102.29722222222222, /
36949, 102.6361111111111, ~
37123, 103.11944444444444, /
37417, 103.93611111111112, /
37709, 104.74722222222222, /
37977, 105.49166666666666, N
38278, 106.32777777777778, f
38574, 107.15, /
38872, 107.97777777777777, /
39165, 108.79166666666667, /
39462, 109.61666666666666, /
39754, 110.42777777777778, /
40039, 111.21944444444445, /
40302, 111.95, N
40607, 112.79722222222222, f
40910, 113.63888888888889, f
41089, 114.1361111111111, ~
41210, 114.47222222222223, /
41511, 115.30833333333334, /
41802, 116.11666666666666, /
42136, 117.04444444444445, /
42372, 117.7, /
42651, 118.475, /
42952, 119.31111111111112, f
43244, 120.12222222222222, N
43556, 120.9888888888889, f
43843, 121.78611111111111, f
44140, 122.61111111111111, /
44421, 123.39166666666667, /
44698, 124.16111111111111, /
45002, 125.00555555555556, /
45306, 125.85, /
45600, 126.66666666666667, /
45897, 127.49166666666666, /
46180, 128.27777777777777, f
46456, 129.04444444444445, N
46745, 129.84722222222223, f
47033, 130.6472222222222, f
47340, 131.5, /
47636, 132.32222222222222, /
47938, 133.1611111111111, /
48232, 133.9777777777778, /
48526, 134.79444444444445, /
48806, 135.57222222222222, /
49085, 136.34722222222223, /
49391, 137.19722222222222, /
49684, 138.01111111111112, f
49934, 138.70555555555555, N
50247, 139.575, f
50557, 140.4361111111111, f
50820, 141.16666666666666, f
51008, 141.6888888888889, ~
51097, 141.9361111111111, f
51394, 142.76111111111112, /
51697, 143.6027777777778, /
51994, 144.42777777777778, /
52295, 145.26388888888889, /
52496, 145.82222222222222, ~
52587, 146.075, /
52875, 146.875, /
53154, 147.65, /
53436, 148.43333333333334, /
53739, 149.275, /
54035, 150.09722222222223, /
54165, 150.45833333333334, +
54295, 150.81944444444446, N
54584, 151.62222222222223, N
54879, 152.44166666666666, N
55173, 153.25833333333333, f
55464, 154.06666666666666, f
55776, 154.93333333333334, f
56050, 155.69444444444446, f
56199, 156.10833333333332, +
56348, 156.5222222222222, /
56644, 157.34444444444443, /
56800, 157.77777777777777, ~
56938, 158.1611111111111, /
57226, 158.9611111111111, /
57504, 159.73333333333332, /
57791, 160.53055555555557, /
58094, 161.37222222222223, /
58391, 162.19722222222222, /
58530, 162.58333333333334, +
58669, 162.96944444444443, N
58951, 163.75277777777777, N
59265, 164.625, f
59536, 165.37777777777777, f
59668, 165.74444444444444, ~
59676, 165.76666666666668, +
59816, 166.15555555555557, /
60122, 167.00555555555556, /
60421, 167.8361111111111, /
60607, 168.3527777777778, ~
60712, 168.64444444444445, /
60865, 169.06944444444446, ~
61011, 169.475, /
61307, 170.29722222222222, /
61589, 171.08055555555555, /
61755, 171.54166666666666, ~
61855, 171.81944444444446, f
62126, 172.57222222222222, N
62458, 173.49444444444444, f
62737, 174.26944444444445, f
63040, 175.11111111111111, /
63333, 175.925, /
63623, 176.73055555555555, /
63905, 177.51388888888889, /
64188, 178.3, /
64487, 179.13055555555556, /
64785, 179.95833333333334, /
64921, 180.3361111111111, +
65057, 180.7138888888889, N
65189, 181.08055555555555, ~
65335, 181.48611111111111, N
65652, 182.36666666666667, f
65950, 183.19444444444446, f
66205, 183.90277777777777, f
66356, 184.32222222222222, +
66508, 184.74444444444444, /
66808, 185.57777777777778, /
67045, 186.23611111111111, ~
67099, 186.38611111111112, /
67398, 187.21666666666667, /
67695, 188.04166666666666, /
67979, 188.83055555555555, /
68260, 189.61111111111111, /
68552, 190.42222222222222, /
68848, 191.24444444444444, /
69131, 192.03055555555557, /
69316, 192.54444444444445, ~
69450, 192.91666666666666, /
69577, 193.26944444444445, +
69704, 193.62222222222223, N
69994, 194.42777777777778, N
70279, 195.21944444444443, f
70562, 196.00555555555556, f
70867, 196.8527777777778, f
71170, 197.69444444444446, f
71472, 198.53333333333333, f
71770, 199.36111111111111, f
72073, 200.20277777777778, f
72360, 201.0, f
72635, 201.76388888888889, f
72934, 202.59444444444443, f
73231, 203.41944444444445, f
73527, 204.24166666666667, f
73830, 205.08333333333334, f
74120, 205.88888888888889, f
74409, 206.69166666666666, f
74680, 207.44444444444446, f
74857, 207.9361111111111, ~
74961, 208.225, Q
75259, 209.05277777777778, Q
75552, 209.86666666666667, f
75774, 210.48333333333332, ~
75849, 210.69166666666666, f
76074, 211.31666666666666, ~
76146, 211.51666666666668, f
76428, 212.3, N
76700, 213.05555555555554, N
76968, 213.8, N
77257, 214.6027777777778, N
77548, 215.4111111111111, N
77656, 215.7111111111111, ~
77838, 216.21666666666667, N
78133, 217.0361111111111, N
78425, 217.84722222222223, N
78707, 218.63055555555556, N
78983, 219.3972222222222, N
79260, 220.16666666666666, N
79387, 220.51944444444445, ~
79554, 220.98333333333332, N
79845, 221.79166666666666, N
80136, 222.6, N
80430, 223.41666666666666, N
80721, 224.225, N
80999, 224.99722222222223, N
81267, 225.74166666666667, N
81553, 226.5361111111111, N
81845, 227.34722222222223, N
82134, 228.15, N
82323, 228.675, V
82480, 229.11111111111111, +
82638, 229.55, /
82932, 230.36666666666667, /
83209, 231.13611111111112, /
83488, 231.9111111111111, /
83787, 232.74166666666667, /
84081, 233.55833333333334, /
84377, 234.38055555555556, /
84677, 235.2138888888889, /
84976, 236.04444444444445, /
85260, 236.83333333333334, /
85536, 237.6, /
85830, 238.41666666666666, /
86127, 239.24166666666667, /
86423, 240.0638888888889, /
86721, 240.89166666666668, /
87020, 241.72222222222223, f
87310, 242.52777777777777, f
87587, 243.29722222222222, f
87874, 244.09444444444443, f
88171, 244.91944444444445, f
88491, 245.80833333333334, f
88793, 246.6472222222222, f
89085, 247.45833333333334, f
89380, 248.27777777777777, f
89655, 249.04166666666666, f
89927, 249.79722222222222, f
90015, 250.04166666666666, ~
90116, 250.32222222222222, ~
90223, 250.61944444444444, f
90517, 251.4361111111111, f
90731, 252.03055555555557, ~
90807, 252.24166666666667, f
91107, 253.075, f
91408, 253.9111111111111, f
91693, 254.70277777777778, f
91969, 255.46944444444443, f
92267, 256.2972222222222, f
92507, 256.9638888888889, N
92817, 257.825, f
93118, 258.6611111111111, f
93416, 259.4888888888889, /
93598, 259.99444444444447, ~
93712, 260.31111111111113, /
93994, 261.09444444444443, /
94270, 261.8611111111111, /
94567, 262.68611111111113, /
94861, 263.5027777777778, /
95161, 264.3361111111111, /
95462, 265.1722222222222, /
95764, 266.0111111111111, /
96048, 266.8, /
96325, 267.56944444444446, /
96621, 268.39166666666665, /
96913, 269.2027777777778, /
97204, 270.0111111111111, /
97505, 270.84722222222223, /
97647, 271.2416666666667, ~
97805, 271.68055555555554, /
98093, 272.48055555555555, /
98370, 273.25, /
98612, 273.9222222222222, ~
98661, 274.05833333333334, /
98961, 274.89166666666665, /
99248, 275.68888888888887, /
99502, 276.39444444444445, ~
99553, 276.5361111111111, /
99853, 277.36944444444447, /
99984, 277.73333333333335, +
100116, 278.1, N
100349, 278.7472222222222, N
100624, 279.5111111111111, N
100902, 280.28333333333336, N
101187, 281.075, N
101478, 281.8833333333333, N
101765, 282.68055555555554, N
102062, 283.50555555555553, N
102348, 284.3, N
102616, 285.0444444444444, N
102893, 285.81388888888887, N
103176, 286.6, N
103463, 287.39722222222224, N
103632, 287.8666666666667, ~
103751, 288.1972222222222, N
104041, 289.0027777777778, N
104339, 289.8305555555556, N
104612, 290.5888888888889, N
104881, 291.3361111111111, N
105172, 292.14444444444445, N
105449, 292.9138888888889, N
105741, 293.725, N
106039, 294.5527777777778, N
106329, 295.35833333333335, N
106625, 296.18055555555554, f
106898, 296.93888888888887, f
107175, 297.7083333333333, N
107473, 298.5361111111111, f
107764, 299.34444444444443, f
108057, 300.15833333333336, N
108362, 301.00555555555553, f
108665, 301.84722222222223, f
108943, 302.61944444444447, f
109223, 303.39722222222224, f
109516, 304.2111111111111, f
109809, 305.025, f
110106, 305.85, f
110398, 306.6611111111111, f
110702, 307.50555555555553, f
110997, 308.325, f
111269, 309.0805555555556, Q
111566, 309.90555555555557, Q
111856, 310.7111111111111, Q
112150, 311.52777777777777, Q
112456, 312.3777777777778, f
112756, 313.2111111111111, f
113047, 314.01944444444445, f
113327, 314.7972222222222, Q
113612, 315.5888888888889, Q
113908, 316.4111111111111, Q
114196, 317.2111111111111, Q
114505, 318.06944444444446, Q
114816, 318.93333333333334, Q
115121, 319.78055555555557, Q
115405, 320.56944444444446, Q
115658, 321.27222222222224, Q
115900, 321.94444444444446, +
115955, 322.09722222222223, f
116246, 322.90555555555557, /
116567, 323.7972222222222, /
116840, 324.55555555555554, /
117144, 325.4, /
117433, 326.2027777777778, /
117710, 326.97222222222223, /
117999, 327.775, /
118291, 328.5861111111111, /
118582, 329.39444444444445, /
118898, 330.27222222222224, /
119185, 331.06944444444446, /
119487, 331.90833333333336, /
119763, 332.675, /
120047, 333.4638888888889, /
120341, 334.28055555555557, /
120627, 335.075, /
120776, 335.4888888888889, ~
120925, 335.90277777777777, /
121228, 336.74444444444447, /
121530, 337.5833333333333, /
121709, 338.0805555555556, ~
121816, 338.3777777777778, /
122092, 339.14444444444445, /
122387, 339.9638888888889, /
122676, 340.76666666666665, /
122965, 341.56944444444446, /
123264, 342.4, /
123571, 343.2527777777778, /
123865, 344.06944444444446, /
124145, 344.84722222222223, /
124435, 345.65277777777777, /
124722, 346.45, /
125012, 347.25555555555553, /
125315, 348.09722222222223, /
125615, 348.93055555555554, /
125918, 349.77222222222224, /
126199, 350.5527777777778, /
126480, 351.3333333333333, /
126773, 352.14722222222224, /
127060, 352.94444444444446, /
127354, 353.7611111111111, /
127657, 354.60277777777776, /
127965, 355.4583333333333, /
128251, 356.2527777777778, f
128528, 357.02222222222224, f
128838, 357.8833333333333, f
129106, 358.6277777777778, f
129242, 359.00555555555553, +
129379, 359.3861111111111, N
129666, 360.18333333333334, N
129950, 360.97222222222223, N
130236, 361.76666666666665, N
130502, 362.50555555555553, N
130770, 363.25, N
131056, 364.0444444444444, N
131279, 364.6638888888889, ~
131330, 364.80555555555554, N
131611, 365.5861111111111, N
131901, 366.39166666666665, N
132201, 367.225, N
132487, 368.01944444444445, N
132761, 368.78055555555557, N
133047, 369.575, N
133334, 370.3722222222222, N
133623, 371.175, f
133918, 371.99444444444447, N
134218, 372.8277777777778, N
134526, 373.68333333333334, f
134807, 374.4638888888889, f
134937, 374.825, ~
135087, 375.2416666666667, f
135386, 376.0722222222222, f
135677, 376.88055555555553, f
135976, 377.7111111111111, f
136284, 378.56666666666666, f
136586, 379.40555555555557, f
136880, 380.22222222222223, f
137159, 380.9972222222222, f
137458, 381.8277777777778, f
137746, 382.6277777777778, f
137877, 382.9916666666667, ~
138037, 383.43611111111113, f
138306, 384.18333333333334, f
138494, 384.7055555555556, ~
138611, 385.03055555555557, f
138909, 385.85833333333335, f
139189, 386.6361111111111, f
139477, 387.43611111111113, f
139767, 388.2416666666667, f
140053, 389.0361111111111, f
140354, 389.8722222222222, f
140656, 390.7111111111111, f
140960, 391.55555555555554, f
141269, 392.4138888888889, f
141546, 393.18333333333334, f
141833, 393.98055555555555, f
142113, 394.7583333333333, f
142398, 395.55, f
142695, 396.375, f
143002, 397.22777777777776, f
143291, 398.03055555555557, f
143562, 398.78333333333336, f
143856, 399.6, f
144143, 400.39722222222224, f
144433, 401.2027777777778, f
144733, 402.0361111111111, f
145047, 402.90833333333336, f
145347, 403.7416666666667, f
145635, 404.5416666666667, f
145937, 405.38055555555553, f
146197, 406.10277777777776, f
146484, 406.9, f
146784, 407.73333333333335, f
146935, 408.15277777777777, +
147086, 408.5722222222222, /
147392, 409.4222222222222, /
147677, 410.2138888888889, /
147959, 410.9972222222222, /
148250, 411.80555555555554, /
148533, 412.59166666666664, /
148826, 413.40555555555557, /
149129, 414.2472222222222, /
149437, 415.10277777777776, /
149726, 415.90555555555557, /
150005, 416.68055555555554, /
150301, 417.5027777777778, /
150585, 418.2916666666667, /
150869, 419.0805555555556, /
151166, 419.90555555555557, /
151476, 420.76666666666665, /
151607, 421.13055555555553, +
151739, 421.4972222222222, N
151994, 422.2055555555556, N
152286, 423.01666666666665, f
152576, 423.8222222222222, f
152862, 424.6166666666667, f
153156, 425.43333333333334, f
153456, 426.26666666666665, f
153765, 427.125, f
154062, 427.95, f
154348, 428.74444444444447, f
154644, 429.56666666666666, f
154935, 430.375, f
155201, 431.1138888888889, f
155500, 431.94444444444446, f
155813, 432.81388888888887, f
155963, 433.23055555555555, +
156113, 433.64722222222224, /
156392, 434.4222222222222, /
156687, 435.2416666666667, /
156971, 436.03055555555557, /
157250, 436.80555555555554, /
157546, 437.6277777777778, /
157850, 438.47222222222223, /
158152, 439.31111111111113, /
158439, 440.10833333333335, /
158569, 440.46944444444443, +
158700, 440.8333333333333, N
158986, 441.6277777777778, N
159278, 442.43888888888887, f
159587, 443.2972222222222, f
159903, 444.175, f
160188, 444.96666666666664, f
160478, 445.77222222222224, f
160619, 446.1638888888889, +
160760, 446.55555555555554, /
161052, 447.3666666666667, /
161335, 448.15277777777777, /
161618, 448.93888888888887, /
161917, 449.76944444444445, /
162226, 450.6277777777778, /
162527, 451.4638888888889, /
162809, 452.2472222222222, /
163101, 453.05833333333334, /
163390, 453.8611111111111, /
163671, 454.64166666666665, /
163930, 455.3611111111111, f
164223, 456.175, N
164538, 457.05, f
164830, 457.8611111111111, f
165116, 458.65555555555557, f
165413, 459.48055555555555, f
165702, 460.28333333333336, f
165972, 461.03333333333336, f
166271, 461.8638888888889, f
166581, 462.725, f
166881, 463.55833333333334, /
167160, 464.3333333333333, /
167455, 465.15277777777777, /
167740, 465.94444444444446, /
168020, 466.72222222222223, /
168315, 467.5416666666667, /
168621, 468.39166666666665, /
168923, 469.23055555555555, /
169211, 470.03055555555557, /
169499, 470.8305555555556, /
169785, 471.625, /
170066, 472.40555555555557, /
170361, 473.225, /
170494, 473.59444444444443, +
170628, 473.96666666666664, N
170911, 474.7527777777778, N
171215, 475.59722222222223, f
171499, 476.3861111111111, f
171791, 477.1972222222222, f
172071, 477.975, f
172355, 478.7638888888889, f
172652, 479.5888888888889, f
172962, 480.45, f
173264, 481.2888888888889, f
173561, 482.1138888888889, f
173855, 482.93055555555554, f
174145, 483.7361111111111, f
174397, 484.43611111111113, f
174544, 484.84444444444443, +
174691, 485.2527777777778, /
174995, 486.09722222222223, /
175302, 486.95, /
175592, 487.75555555555553, /
175880, 488.55555555555554, /
176168, 489.35555555555555, /
176447, 490.13055555555553, /
176738, 490.93888888888887, /
177038, 491.77222222222224, /
177347, 492.63055555555553, /
177641, 493.4472222222222, /
177925, 494.2361111111111, /
178055, 494.59722222222223, +
178185, 494.9583333333333, N
178462, 495.72777777777776, N
178741, 496.5027777777778, f
179042, 497.3388888888889, f
179357, 498.2138888888889, f
179667, 499.075, f
179955, 499.875, f
180258, 500.71666666666664, f
180522, 501.45, f
180799, 502.21944444444443, f
180945, 502.625, +
181091, 503.03055555555557, /
181391, 503.8638888888889, /
181625, 504.5138888888889, ~
181696, 504.7111111111111, /
182017, 505.60277777777776, /
182278, 506.3277777777778, /
182565, 507.125, /
182844, 507.9, /
183131, 508.6972222222222, /
183430, 509.52777777777777, /
183740, 510.3888888888889, /
183873, 510.7583333333333, +
184006, 511.1277777777778, N
184280, 511.8888888888889, N
184586, 512.7388888888889, f
184873, 513.5361111111112, f
185159, 514.3305555555555, f
185452, 515.1444444444444, f
185650, 515.6944444444445, ~
185770, 516.0277777777778, f
186047, 516.7972222222222, f
186340, 517.6111111111111, f
186487, 518.0194444444444, +
186634, 518.4277777777778, /
186920, 519.2222222222222, /
187199, 519.9972222222223, /
187489, 520.8027777777778, /
187787, 521.6305555555556, /
188094, 522.4833333333333, /
188389, 523.3027777777778, /
188677, 524.1027777777778, /
188969, 524.9138888888889, /
189246, 525.6833333333333, /
189529, 526.4694444444444, /
189820, 527.2777777777778, f
190077, 527.9916666666667, N
190388, 528.8555555555556, f
190692, 529.7, f
190994, 530.5388888888889, f
191283, 531.3416666666667, f
191567, 532.1305555555556, f
191831, 532.8638888888889, f
192132, 533.7, f
192440, 534.5555555555555, /
192734, 535.3722222222223, /
193025, 536.1805555555555, /
193317, 536.9916666666667, /
193592, 537.7555555555556, /
193879, 538.5527777777778, /
194177, 539.3805555555556, /
194487, 540.2416666666667, /
194784, 541.0666666666667, /
194916, 541.4333333333333, +
195048, 541.8, N
195345, 542.625, N
195641, 543.4472222222222, f
195930, 544.25, f
196202, 545.0055555555556, f
196509, 545.8583333333333, f
196660, 546.2777777777778, +
196811, 546.6972222222222, /
197103, 547.5083333333333, /
197400, 548.3333333333334, /
197685, 549.125, /
197962, 549.8944444444444, /
198251, 550.6972222222222, /
198549, 551.525, /
198856, 552.3777777777777, /
199154, 553.2055555555555, /
199415, 553.9305555555555, N
199710, 554.75, f
200000, 555.5555555555555, f
200294, 556.3722222222223, f
200598, 557.2166666666667, f
200882, 558.0055555555556, f
201180, 558.8333333333334, f
201471, 559.6416666666667, /
201771, 560.475, /
202052, 561.2555555555556, /
202325, 562.0138888888889, /
202613, 562.8138888888889, /
202918, 563.6611111111112, /
203222, 564.5055555555556, /
203515, 565.3194444444445, /
203814, 566.15, /
203946, 566.5166666666667, +
204078, 566.8833333333333, N
204339, 567.6083333333333, N
204635, 568.4305555555555, f
204949, 569.3027777777778, f
205260, 570.1666666666666, f
205532, 570.9222222222222, f
205827, 571.7416666666667, f
205974, 572.15, +
206122, 572.5611111111111, /
206400, 573.3333333333334, /
206684, 574.1222222222223, /
206975, 574.9305555555555, /
207283, 575.7861111111112, /
207584, 576.6222222222223, /
207874, 577.4277777777778, /
208175, 578.2638888888889, /
208460, 579.0555555555555, /
208731, 579.8083333333333, /
208864, 580.1777777777778, +
208997, 580.5472222222222, N
209282, 581.3388888888888, N
209598, 582.2166666666667, f
209899, 583.0527777777778, f
210217, 583.9361111111111, f
210483, 584.675, f
210760, 585.4444444444445, f
210903, 585.8416666666667, +
211047, 586.2416666666667, /
211338, 587.05, /
211644, 587.9, /
211941, 588.725, /
212235, 589.5416666666666, /
212532, 590.3666666666667, /
212810, 591.1388888888889, /
213088, 591.9111111111112, /
213375, 592.7083333333334, /
213519, 593.1083333333333, +
213664, 593.5111111111111, N
213951, 594.3083333333333, N
214268, 595.1888888888889, f
214587, 596.075, f
214847, 596.7972222222222, f
215122, 597.5611111111111, f
215264, 597.9555555555555, +
215406, 598.35, /
215702, 599.1722222222222, /
216009, 600.025, /
216306, 600.85, /
216604, 601.6777777777778, /
216896, 602.4888888888889, /
217171, 603.2527777777777, /
217306, 603.6277777777777, +
217442, 604.0055555555556, N
217713, 604.7583333333333, N
218046, 605.6833333333333, f
218357, 606.5472222222222, f
218624, 607.2888888888889, f
218776, 607.7111111111111, +
218928, 608.1333333333333, /
219208, 608.9111111111112, /
219485, 609.6805555555555, /
219769, 610.4694444444444, /
220071, 611.3083333333333, /
220376, 612.1555555555556, /
220669, 612.9694444444444, /
220974, 613.8166666666667, /
221256, 614.6, f
221539, 615.3861111111111, f
221840, 616.2222222222222, f
222114, 616.9833333333333, f
222420, 617.8333333333334, /
222718, 618.6611111111112, /
223019, 619.4972222222223, /
223315, 620.3194444444445, /
223592, 621.0888888888888, /
223875, 621.875, /
224162, 622.6722222222222, /
224469, 623.525, /
224744, 624.2888888888889, N
225040, 625.1111111111111, f
225360, 626.0, f
225662, 626.8388888888888, f
225911, 627.5305555555556, f
226197, 628.325, /
226496, 629.1555555555556, /
226798, 629.9944444444444, /
227094, 630.8166666666667, /
227400, 631.6666666666666, /
227689, 632.4694444444444, /
227967, 633.2416666666667, /
228249, 634.025, /
228537, 634.825, /
228681, 635.225, +
228826, 635.6277777777777, N
229117, 636.4361111111111, N
229426, 637.2944444444445, f
229743, 638.175, f
230004, 638.9, f
230283, 639.675, f
230427, 640.075, +
230572, 640.4777777777778, /
230876, 641.3222222222222, /
231177, 642.1583333333333, /
231472, 642.9777777777778, /
231778, 643.8277777777778, /
232062, 644.6166666666667, /
232333, 645.3694444444444, /
232615, 646.1527777777778, /
232912, 646.9777777777778, /
233054, 647.3722222222223, +
233197, 647.7694444444444, N
233483, 648.5638888888889, N
233804, 649.4555555555555, f
234114, 650.3166666666667, f
234371, 651.0305555555556, f
234513, 651.425, +
234655, 651.8194444444445, /
234943, 652.6194444444444, /
235243, 653.4527777777778, /
235542, 654.2833333333333, /
235844, 655.1222222222223, /
236140, 655.9444444444445, /
236421, 656.725, /
236704, 657.5111111111111, /
236987, 658.2972222222222, /
237279, 659.1083333333333, f
237584, 659.9555555555555, f
237896, 660.8222222222222, f
238192, 661.6444444444444, f
238480, 662.4444444444445, /
238752, 663.2, /
239035, 663.9861111111111, /
239332, 664.8111111111111, /
239630, 665.6388888888889, /
239925, 666.4583333333334, /
240236, 667.3222222222222, /
240530, 668.1388888888889, /
240798, 668.8833333333333, f
241081, 669.6694444444445, f
241391, 670.5305555555556, f
241669, 671.3027777777778, f
241966, 672.1277777777777, /
242272, 672.9777777777778, /
242573, 673.8138888888889, /
242852, 674.5888888888888, /
243136, 675.3777777777777, /
243420, 676.1666666666666, /
243718, 676.9944444444444, /
244017, 677.825, /
244295, 678.5972222222222, N
244612, 679.4777777777778, f
244924, 680.3444444444444, f
245176, 681.0444444444445, f
245459, 681.8305555555555, /
245756, 682.6555555555556, /
246056, 683.4888888888889, /
246351, 684.3083333333333, /
246664, 685.1777777777778, /
246958, 685.9944444444444, /
247232, 686.7555555555556, /
247513, 687.5361111111112, /
247777, 688.2694444444444, N
248083, 689.1194444444444, f
248408, 690.0222222222222, f
248684, 690.7888888888889, f
248986, 691.6277777777777, /
249268, 692.4111111111112, /
249551, 693.1972222222222, /
249836, 693.9888888888889, /
250135, 694.8194444444445, /
250430, 695.6388888888889, /
250726, 696.4611111111111, /
251037, 697.325, /
251323, 698.1194444444444, f
251570, 698.8055555555555, N
251875, 699.6527777777778, f
252153, 700.425, f
252450, 701.25, f
252747, 702.075, /
253055, 702.9305555555555, /
253356, 703.7666666666667, /
253636, 704.5444444444445, /
253918, 705.3277777777778, /
254204, 706.1222222222223, /
254501, 706.9472222222222, /
254794, 707.7611111111111, /
255090, 708.5833333333334, f
255407, 709.4638888888888, f
255708, 710.3, f
255968, 711.0222222222222, f
256253, 711.8138888888889, /
256545, 712.625, /
256840, 713.4444444444445, /
257136, 714.2666666666667, /
257449, 715.1361111111111, /
257743, 715.9527777777778, /
258018, 716.7166666666667, /
258296, 717.4888888888889, f
258593, 718.3138888888889, f
258883, 719.1194444444444, f
259180, 719.9444444444445, /
259492, 720.8111111111111, /
259790, 721.6388888888889, /
260072, 722.4222222222222, /
260353, 723.2027777777778, /
260634, 723.9833333333333, /
260931, 724.8083333333333, /
261225, 725.625, f
261484, 726.3444444444444, N
261808, 727.2444444444444, /
262095, 728.0416666666666, /
262375, 728.8194444444445, /
262659, 729.6083333333333, /
262952, 730.4222222222222, /
263243, 731.2305555555556, /
263539, 732.0527777777778, /
263850, 732.9166666666666, f
264137, 733.7138888888888, f
264434, 734.5388888888889, f
264700, 735.2777777777778, f
264992, 736.0888888888888, /
265285, 736.9027777777778, /
265578, 737.7166666666667, /
265889, 738.5805555555555, /
266193, 739.425, /
266477, 740.2138888888888, /
266759, 740.9972222222223, /
267042, 741.7833333333333, /
267326, 742.5722222222222, f
267619, 743.3861111111111, f
267943, 744.2861111111112, f
268234, 745.0944444444444, f
268521, 745.8916666666667, f
268807, 746.6861111111111, /
269089, 747.4694444444444, /
269383, 748.2861111111112, /
269672, 749.0888888888888, /
269966, 749.9055555555556, /
270283, 750.7861111111112, /
270578, 751.6055555555556, /
270856, 752.3777777777777, /
271107, 753.075, N
271405, 753.9027777777778, f
271702, 754.7277777777778, f
272007, 755.575, f
272298, 756.3833333333333, f
272599, 757.2194444444444, f
272887, 758.0194444444444, /
273169, 758.8027777777778, /
273450, 759.5833333333334, /
273742, 760.3944444444444, /
274035, 761.2083333333334, /
274338, 762.05, /
274646, 762.9055555555556, /
274937, 763.7138888888888, /
275200, 764.4444444444445, N
275490, 765.25, f
275805, 766.125, f
276073, 766.8694444444444, f
276368, 767.6888888888889, /
276681, 768.5583333333333, /
276977, 769.3805555555556, /
277258, 770.1611111111112, /
277540, 770.9444444444445, /
277829, 771.7472222222223, /
278117, 772.5472222222222, /
278405, 773.3472222222222, f
278717, 774.2138888888888, f
279044, 775.1222222222223, f
279309, 775.8583333333333, /
279595, 776.6527777777778, /
279878, 777.4388888888889, /
280165, 778.2361111111111, /
280453, 779.0361111111112, /
280756, 779.8777777777777, /
281064, 780.7333333333333, /
281356, 781.5444444444445, f
281645, 782.3472222222222, f
281928, 783.1333333333333, f
282221, 783.9472222222222, /
282508, 784.7444444444444, /
282799, 785.5527777777778, /
283116, 786.4333333333333, /
283416, 787.2666666666667, /
283695, 788.0416666666666, /
283978, 788.8277777777778, /
284268, 789.6333333333333, f
284556, 790.4333333333333, f
284840, 791.2222222222222, f
285157, 792.1027777777778, /
285461, 792.9472222222222, /
285751, 793.7527777777777, /
286035, 794.5416666666666, /
286318, 795.3277777777778, /
286606, 796.1277777777777, /
286891, 796.9194444444445, /
287191, 797.7527777777777, f
287512, 798.6444444444444, f
287792, 799.4222222222222, f
288084, 800.2333333333333, /
288367, 801.0194444444444, /
288655, 801.8194444444445, /
288940, 802.6111111111111, /
289232, 803.4222222222222, /
289547, 804.2972222222222, /
289846, 805.1277777777777, /
290119, 805.8861111111111, N
290407, 806.6861111111111, f
290718, 807.55, f
290989, 808.3027777777778, f
291275, 809.0972222222222, /
291589, 809.9694444444444, /
291894, 810.8166666666667, /
292180, 811.6111111111111, /
292463, 812.3972222222222, /
292747, 813.1861111111111, /
293033, 813.9805555555556, /
293292, 814.7, N
293608, 815.5777777777778, f
293937, 816.4916666666667, f
294205, 817.2361111111111, f
294501, 818.0583333333333, /
294783, 818.8416666666667, /
295072, 819.6444444444444, /
295353, 820.425, /
295643, 821.2305555555556, /
295956, 822.1, /
296253, 822.925, /
296521, 823.6694444444445, N
296822, 824.5055555555556, f
297107, 825.2972222222222, f
297393, 826.0916666666667, /
297676, 826.8777777777777, /
297988, 827.7444444444444, /
298295, 828.5972222222222, /
298584, 829.4, /
298869, 830.1916666666667, /
299157, 830.9916666666667, /
299433, 831.7583333333333, f
299730, 832.5833333333334, f
300024, 833.4, f
300334, 834.2611111111111, /
300628, 835.0777777777778, /
300922, 835.8944444444444, /
301207, 836.6861111111111, /
301494, 837.4833333333333, /
301774, 838.2611111111111, /
302067, 839.075, f
302382, 839.95, f
302670, 840.75, f
302967, 841.575, /
303251, 842.3638888888889, /
303543, 843.175, /
303825, 843.9583333333334, /
304108, 844.7444444444444, /
304420, 845.6111111111111, /
304724, 846.4555555555555, f
305037, 847.325, f
305301, 848.0583333333333, /
305591, 848.8638888888889, /
305877, 849.6583333333333, /
306158, 850.4388888888889, /
306460, 851.2777777777778, /
306767, 852.1305555555556, /
307063, 852.9527777777778, f
307360, 853.7777777777778, f
307638, 854.55, f
307928, 855.3555555555556, /
308207, 856.1305555555556, /
308498, 856.9388888888889, /
308806, 857.7944444444445, /
309101, 858.6138888888889, /
309401, 859.4472222222222, /
309682, 860.2277777777778, f
309984, 861.0666666666667, f
310261, 861.8361111111111, f
310544, 862.6222222222223, /
310854, 863.4833333333333, /
311156, 864.3222222222222, /
311448, 865.1333333333333, /
311737, 865.9361111111111, /
312028, 866.7444444444444, /
312298, 867.4944444444444, N
312585, 868.2916666666666, f
312918, 869.2166666666667, f
313198, 869.9944444444444, /
313492, 870.8111111111111, /
313791, 871.6416666666667, /
314078, 872.4388888888889, /
314365, 873.2361111111111, /
314643, 874.0083333333333, /
314934, 874.8166666666667, /
315234, 875.65, f
315545, 876.5138888888889, f
315833, 877.3138888888889, f
316125, 878.125, /
316417, 878.9361111111111, /
316695, 879.7083333333334, /
316975, 880.4861111111111, /
317286, 881.35, /
317587, 882.1861111111111, /
317872, 882.9777777777778, f
318168, 883.8, f
318484, 884.6777777777778, f
318748, 885.4111111111112, /
319027, 886.1861111111111, /
319326, 887.0166666666667, /
319631, 887.8638888888889, /
319927, 888.6861111111111, /
320221, 889.5027777777777, /
320510, 890.3055555555555, /
320804, 891.1222222222223, f
321098, 891.9388888888889, f
321368, 892.6888888888889, /
321674, 893.5388888888889, /
321969, 894.3583333333333, /
322269, 895.1916666666667, /
322561, 896.0027777777777, /
322851, 896.8083333333333, /
323133, 897.5916666666667, f
323426, 898.4055555555556, f
323714, 899.2055555555555, /
324012, 900.0333333333333, /
324307, 900.8527777777778, /
324603, 901.675, /
324899, 902.4972222222223, /
325179, 903.275, /
325469, 904.0805555555555, f
325769, 904.9138888888889, f
326059, 905.7194444444444, f
326354, 906.5388888888889, /
326650, 907.3611111111111, /
326945, 908.1805555555555, /
327232, 908.9777777777778, /
327508, 909.7444444444444, /
327809, 910.5805555555555, f
328115, 911.4305555555555, f
328397, 912.2138888888888, f
328698, 913.05, /
328991, 913.8638888888889, /
329283, 914.675, /
329559, 915.4416666666667, /
329844, 916.2333333333333, /
330150, 917.0833333333334, f
330459, 917.9416666666667, f
330740, 918.7222222222222, f
331038, 919.55, /
331332, 920.3666666666667, /
331612, 921.1444444444444, /
331888, 921.9111111111112, /
332189, 922.7472222222223, /
332485, 923.5694444444445, f
332780, 924.3888888888889, f
333075, 925.2083333333334, f
333358, 925.9944444444444, V
333655, 926.8194444444445, /
333933, 927.5916666666667, /
334228, 928.4111111111112, /
334525, 929.2361111111111, /
334812, 930.0333333333333, f
335114, 930.8722222222223, f
335438, 931.7722222222222, f
335708, 932.5222222222222, /
335986, 933.2944444444445, /
336269, 934.0805555555555, /
336568, 934.9111111111112, /
336862, 935.7277777777778, /
337162, 936.5611111111111, /
337453, 937.3694444444444, f
337757, 938.2138888888888, f
338057, 939.0472222222222, f
338315, 939.7638888888889, f
338614, 940.5944444444444, /
338908, 941.4111111111112, /
339204, 942.2333333333333, /
339502, 943.0611111111111, /
339803, 943.8972222222222, /
340088, 944.6888888888889, /
340364, 945.4555555555555, f
340677, 946.325, f
340957, 947.1027777777778, /
341253, 947.925, /
341554, 948.7611111111111, /
341854, 949.5944444444444, /
342145, 950.4027777777778, /
342422, 951.1722222222222, /
342709, 951.9694444444444, /
343001, 952.7805555555556, f
343314, 953.65, f
343600, 954.4444444444445, f
343900, 955.2777777777778, /
344200, 956.1111111111111, /
344479, 956.8861111111111, /
344755, 957.6527777777778, /
345056, 958.4888888888889, /
345351, 959.3083333333333, f
345646, 960.1277777777777, f
345944, 960.9555555555555, f
346247, 961.7972222222222, /
346530, 962.5833333333334, /
346806, 963.35, /
347102, 964.1722222222222, /
347395, 964.9861111111111, /
347689, 965.8027777777778, /
347994, 966.65, f
348286, 967.4611111111111, f
348581, 968.2805555555556, /
348861, 969.0583333333333, /
349146, 969.85, /
349440, 970.6666666666666, /
349734, 971.4833333333333, /
350035, 972.3194444444445, f
350336, 973.1555555555556, f
350636, 973.9888888888889, f
350916, 974.7666666666667, /
351196, 975.5444444444445, /
351490, 976.3611111111111, /
351779, 977.1638888888889, /
352075, 977.9861111111111, /
352374, 978.8166666666667, f
352676, 979.6555555555556, f
352964, 980.4555555555555, f
353239, 981.2194444444444, /
353536, 982.0444444444445, /
353827, 982.8527777777778, /
354115, 983.6527777777778, /
354416, 984.4888888888889, /
354723, 985.3416666666667, /
354993, 986.0916666666667, N
355284, 986.9, f
355571, 987.6972222222222, f
355861, 988.5027777777777, /
356153, 989.3138888888889, /
356456, 990.1555555555556, /
356755, 990.9861111111111, /
357057, 991.825, /
357337, 992.6027777777778, /
357618, 993.3833333333333, f
357900, 994.1666666666666, N
358201, 995.0027777777777, f
358525, 995.9027777777778, f
358801, 996.6694444444445, /
359107, 997.5194444444444, /
359389, 998.3027777777778, /
359666, 999.0722222222222, /
359962, 999.8944444444444, /
360247, 1000.6861111111111, /
360538, 1001.4944444444444, /
360810, 1002.25, N
361132, 1003.1444444444444, f
361421, 1003.9472222222222, f
361699, 1004.7194444444444, /
361992, 1005.5333333333333, /
362281, 1006.3361111111111, /
362566, 1007.1277777777777, /
362866, 1007.9611111111111, /
363169, 1008.8027777777778, /
363461, 1009.6138888888889, f
363752, 1010.4222222222222, f
364062, 1011.2833333333333, f
364326, 1012.0166666666667, /
364613, 1012.8138888888889, /
364913, 1013.6472222222222, /
365215, 1014.4861111111111, /
365525, 1015.3472222222222, /
365813, 1016.1472222222222, /
366089, 1016.9138888888889, f
366382, 1017.7277777777778, f
366666, 1018.5166666666667, f
366953, 1019.3138888888889, /
367257, 1020.1583333333333, /
367564, 1021.0111111111111, /
367857, 1021.825, /
368137, 1022.6027777777778, /
368431, 1023.4194444444445, /
368720, 1024.2222222222222, f
368999, 1024.9972222222223, f
369300, 1025.8333333333333, /
369606, 1026.6833333333334, /
369907, 1027.5194444444444, /
370191, 1028.3083333333334, /
370477, 1029.1027777777779, /
370765, 1029.9027777777778, /
371053, 1030.7027777777778, f
371347, 1031.5194444444444, f
371652, 1032.3666666666666, /
371958, 1033.2166666666667, /
372245, 1034.013888888889, /
372526, 1034.7944444444445, /
372819, 1035.6083333333333, /
373104, 1036.4, /
373395, 1037.2083333333333, f
373719, 1038.1083333333333, f
374005, 1038.9027777777778, /
374298, 1039.7166666666667, /
374576, 1040.4888888888888, /
374873, 1041.3138888888889, /
375158, 1042.1055555555556, /
375439, 1042.8861111111112, /
375724, 1043.6777777777777, N
376043, 1044.5638888888889, f
376340, 1045.388888888889, f
376627, 1046.1861111111111, /
376918, 1046.9944444444445, /
377204, 1047.7888888888888, /
377488, 1048.5777777777778, /
377785, 1049.4027777777778, /
378086, 1050.2388888888888, /
378378, 1051.05, N
378673, 1051.8694444444445, f
378981, 1052.725, f
379253, 1053.4805555555556, /
379531, 1054.2527777777777, /
379822, 1055.0611111111111, /
380123, 1055.8972222222221, /
380434, 1056.7611111111112, /
380730, 1057.5833333333333, /
381011, 1058.3638888888888, /
381286, 1059.1277777777777, N
381593, 1059.9805555555556, f
381859, 1060.7194444444444, f
382156, 1061.5444444444445, /
382466, 1062.4055555555556, /
382766, 1063.2388888888888, /
383049, 1064.025, /
383343, 1064.8416666666667, /
383628, 1065.6333333333334, /
383891, 1066.3638888888888, N
384194, 1067.2055555555555, f
384524, 1068.1222222222223, f
384805, 1068.9027777777778, /
385097, 1069.713888888889, /
385386, 1070.5166666666667, /
385673, 1071.3138888888889, /
385954, 1072.0944444444444, /
386247, 1072.9083333333333, /
386546, 1073.7388888888888, f
386861, 1074.6138888888888, f
387147, 1075.4083333333333, f
387432, 1076.2, /
387726, 1077.0166666666667, /
388007, 1077.7972222222222, /
388286, 1078.5722222222223, /
388584, 1079.4, /
388895, 1080.263888888889, /
389199, 1081.1083333333333, f
389480, 1081.888888888889, f
389779, 1082.7194444444444, /
390063, 1083.5083333333334, /
390339, 1084.275, /
390627, 1085.075, /
390933, 1085.925, /
391238, 1086.7722222222221, f
391532, 1087.588888888889, f
391820, 1088.388888888889, f
392107, 1089.1861111111111, /
392385, 1089.9583333333333, /
392676, 1090.7666666666667, /
392974, 1091.5944444444444, /
393282, 1092.45, /
393582, 1093.2833333333333, f
393889, 1094.1361111111112, f
394160, 1094.888888888889, /
394439, 1095.6638888888888, /
394723, 1096.4527777777778, /
395017, 1097.2694444444444, /
395331, 1098.1416666666667, /
395629, 1098.9694444444444, /
395911, 1099.7527777777777, f
396222, 1100.6166666666666, f
396494, 1101.3722222222223, f
396769, 1102.1361111111112, /
397061, 1102.9472222222223, /
397367, 1103.7972222222222, /
397670, 1104.638888888889, /
397964, 1105.4555555555555, /
398262, 1106.2833333333333, /
398549, 1107.0805555555555, f
398840, 1107.888888888889, f
399108, 1108.6333333333334, /
399407, 1109.463888888889, /
399714, 1110.3166666666666, /
400009, 1111.1361111111112, /
400306, 1111.9611111111112, /
400596, 1112.7666666666667, /
400874, 1113.5388888888888, /
401149, 1114.3027777777777, N
401460, 1115.1666666666667, f
401764, 1116.0111111111112, f
402064, 1116.8444444444444, /
402353, 1117.6472222222221, /
402651, 1118.475, /
402934, 1119.2611111111112, /
403208, 1120.0222222222221, /
403496, 1120.8222222222223, /
403806, 1121.6833333333334, /
404091, 1122.475, N
404397, 1123.325, f
404699, 1124.1638888888888, f
404985, 1124.9583333333333, /
405259, 1125.7194444444444, /
405545, 1126.513888888889, /
405843, 1127.3416666666667, /
406147, 1128.1861111111111, /
406442, 1129.0055555555555, /
406741, 1129.8361111111112, /
407030, 1130.638888888889, f
407327, 1131.463888888889, f
407592, 1132.2, /
407884, 1133.0111111111112, /
408194, 1133.8722222222223, /
408491, 1134.6972222222223, /
408788, 1135.5222222222221, /
409085, 1136.3472222222222, /
409360, 1137.111111111111, f
409637, 1137.8805555555555, f
409928, 1138.6888888888889, f
410238, 1139.55, /
410540, 1140.388888888889, /
410832, 1141.2, /
411136, 1142.0444444444445, /
411421, 1142.8361111111112, /
411692, 1143.588888888889, /
411985, 1144.4027777777778, f
412302, 1145.2833333333333, f
412581, 1146.0583333333334, /
412874, 1146.8722222222223, /
413181, 1147.725, /
413469, 1148.525, /
413744, 1149.2888888888888, /
414028, 1150.0777777777778, /
414329, 1150.9138888888888, f
414620, 1151.7222222222222, f
414920, 1152.5555555555557, /
415220, 1153.388888888889, /
415514, 1154.2055555555555, /
415793, 1154.9805555555556, /
416077, 1155.7694444444444, /
416369, 1156.5805555555555, f
416670, 1157.4166666666667, f
416968, 1158.2444444444445, f
417265, 1159.0694444444443, /
417570, 1159.9166666666667, /
417852, 1160.7, /
418127, 1161.463888888889, /
418412, 1162.2555555555555, /
418707, 1163.075, f
419006, 1163.9055555555556, f
419304, 1164.7333333333333, f
419617, 1165.6027777777779, /
419906, 1166.4055555555556, /
420179, 1167.1638888888888, /
420459, 1167.9416666666666, /
420755, 1168.763888888889, /
421055, 1169.5972222222222, /
421334, 1170.3722222222223, N
421658, 1171.2722222222221, f
421970, 1172.138888888889, f
422226, 1172.85, f
422511, 1173.6416666666667, /
422794, 1174.4277777777777, /
423095, 1175.263888888889, /
423396, 1176.1, /
423695, 1176.9305555555557, /
423997, 1177.7694444444444, /
424261, 1178.5027777777777, N
424558, 1179.3277777777778, f
424835, 1180.0972222222222, f
425139, 1180.9416666666666, /
425437, 1181.7694444444444, /
425732, 1182.588888888889, /
426044, 1183.4555555555555, /
426329, 1184.2472222222223, /
426602, 1185.0055555555555, /
426872, 1185.7555555555555, N
427179, 1186.6083333333333, f
427473, 1187.425, f
427772, 1188.2555555555555, /
428080, 1189.111111111111, f
428377, 1189.9361111111111, /
428655, 1190.7083333333333, /
428937, 1191.4916666666666, /
429224, 1192.2888888888888, /
429522, 1193.1166666666666, f
429821, 1193.9472222222223, f
430122, 1194.7833333333333, f
430426, 1195.6277777777777, /
430706, 1196.4055555555556, /
430990, 1197.1944444444443, /
431274, 1197.9833333333333, /
431571, 1198.8083333333334, /
431868, 1199.6333333333334, /
432180, 1200.5, f
432474, 1201.3166666666666, f
432767, 1202.1305555555555, /
433041, 1202.8916666666667, /
433323, 1203.675, /
433618, 1204.4944444444445, /
433912, 1205.3111111111111, /
434213, 1206.1472222222221, f
434537, 1207.0472222222222, f
434818, 1207.8277777777778, /
435095, 1208.5972222222222, /
435375, 1209.375, /
435661, 1210.1694444444445, /
435956, 1210.9888888888888, /
436252, 1211.8111111111111, /
436569, 1212.6916666666666, f
436862, 1213.5055555555555, f
437149, 1214.3027777777777, /
437431, 1215.0861111111112, /
437713, 1215.8694444444445, /
438008, 1216.6888888888889, /
438301, 1217.5027777777777, /
438603, 1218.3416666666667, /
438921, 1219.225, f
439196, 1219.9888888888888, f
439479, 1220.775, /
439760, 1221.5555555555557, /
440055, 1222.375, /
440349, 1223.1916666666666, /
440644, 1224.0111111111112, /
440958, 1224.8833333333334, f
441254, 1225.7055555555555, f
441528, 1226.4666666666667, f
441809, 1227.2472222222223, /
442101, 1228.0583333333334, /
442390, 1228.861111111111, /
442683, 1229.675, /
442997, 1230.5472222222222, /
443297, 1231.3805555555555, /
443562, 1232.1166666666666, N
443871, 1232.975, f
444138, 1233.7166666666667, f
444431, 1234.5305555555556, /
444724, 1235.3444444444444, /
445030, 1236.1944444444443, /
445336, 1237.0444444444445, /
445626, 1237.85, /
445911, 1238.6416666666667, /
446179, 1239.3861111111112, N
446484, 1240.2333333333333, f
446767, 1241.0194444444444, f
447066, 1241.85, /
447379, 1242.7194444444444, /
447673, 1243.536111111111, /
447956, 1244.3222222222223, /
448238, 1245.1055555555556, /
448528, 1245.911111111111, /
448816, 1246.7111111111112, /
449105, 1247.513888888889, f
449441, 1248.4472222222223, f
449723, 1249.2305555555556, f
450006, 1250.0166666666667, /
450287, 1250.7972222222222, /
450575, 1251.5972222222222, /
450859, 1252.3861111111112, /
451147, 1253.1861111111111, /
451461, 1254.0583333333334, /
451753, 1254.8694444444445, N
452059, 1255.7194444444444, f
452339, 1256.4972222222223, f
452622, 1257.2833333333333, /
452911, 1258.0861111111112, /
453200, 1258.888888888889, /
453500, 1259.7222222222222, /
453809, 1260.5805555555555, /
454103, 1261.3972222222221, /
454393, 1262.2027777777778, f
454693, 1263.036111111111, f
454966, 1263.7944444444445, /
455249, 1264.5805555555555, /
455542, 1265.3944444444444, /
455858, 1266.2722222222221, /
456154, 1267.0944444444444, /
456440, 1267.888888888889, /
456724, 1268.6777777777777, f
457022, 1269.5055555555555, f
457298, 1270.2722222222221, /
457584, 1271.0666666666666, /
457898, 1271.9388888888889, /
458199, 1272.775, /
458487, 1273.575, /
458772, 1274.3666666666666, /
459062, 1275.1722222222222, f
459358, 1275.9944444444445, f
459629, 1276.7472222222223, /
459936, 1277.6, /
460243, 1278.4527777777778, /
460539, 1279.275, /
460833, 1280.0916666666667, /
461115, 1280.875, /
461409, 1281.6916666666666, f
461684, 1282.4555555555555, f
461978, 1283.2722222222221, /
462293, 1284.1472222222221, /
462590, 1284.9722222222222, /
462879, 1285.775, /
463164, 1286.5666666666666, /
463456, 1287.3777777777777, /
463738, 1288.161111111111, f
464021, 1288.9472222222223, f
464340, 1289.8333333333333, /
464642, 1290.6722222222222, /
464931, 1291.475, /
465217, 1292.2694444444444, /
465503, 1293.0638888888889, /
465788, 1293.8555555555556, /
466051, 1294.5861111111112, N
466384, 1295.5111111111112, f
466675, 1296.3194444444443, f
466971, 1297.1416666666667, /
467263, 1297.9527777777778, /
467547, 1298.7416666666666, /
467833, 1299.536111111111, /
468116, 1300.3222222222223, /
468412, 1301.1444444444444, /
468698, 1301.9388888888889, N
469008, 1302.8, f
469300, 1303.611111111111, f
469587, 1304.4083333333333, /
469878, 1305.2166666666667, /
470159, 1305.9972222222223, /
470443, 1306.786111111111, /
470755, 1307.6527777777778, /
471054, 1308.4833333333333, /
471342, 1309.2833333333333, /
471610, 1310.0277777777778, N
471927, 1310.9083333333333, f
472194, 1311.65, f
472475, 1312.4305555555557, /
472784, 1313.2888888888888, /
473085, 1314.125, /
473378, 1314.9388888888889, /
473670, 1315.75, /
473959, 1316.5527777777777, /
474231, 1317.3083333333334, N
474514, 1318.0944444444444, f
474816, 1318.9333333333334, f
475123, 1319.786111111111, /
475421, 1320.6138888888888, /
475720, 1321.4444444444443, /
476008, 1322.2444444444445, /
476297, 1323.0472222222222, /
476575, 1323.8194444444443, /
476860, 1324.611111111111, f
477179, 1325.4972222222223, f
477466, 1326.2944444444445, /
477764, 1327.1222222222223, /
478055, 1327.9305555555557, /
478347, 1328.7416666666666, /
478627, 1329.5194444444444, /
478905, 1330.2916666666667, /
479214, 1331.15, f
479512, 1331.9777777777779, f
479804, 1332.7888888888888, f
480102, 1333.6166666666666, /
480396, 1334.4333333333334, /
480676, 1335.2111111111112, /
480954, 1335.9833333333333, /
481257, 1336.825, /
481557, 1337.6583333333333, /
481862, 1338.5055555555555, f
482146, 1339.2944444444445, f
482439, 1340.1083333333333, /
482727, 1340.9083333333333, /
483006, 1341.6833333333334, /
483296, 1342.4888888888888, /
483599, 1343.3305555555555, /
483905, 1344.1805555555557, f
484208, 1345.0222222222221, f
484492, 1345.8111111111111, f
484785, 1346.625, /
485063, 1347.3972222222221, /
485346, 1348.1833333333334, /
485646, 1349.0166666666667, /
485941, 1349.8361111111112, /
486244, 1350.6777777777777, f
486534, 1351.4833333333333, f
486831, 1352.3083333333334, /
487113, 1353.0916666666667, /
487389, 1353.8583333333333, /
487691, 1354.6972222222223, /
487989, 1355.525, /
488282, 1356.338888888889, /
488573, 1357.1472222222221, f
488896, 1358.0444444444445, f
489165, 1358.7916666666667, /
489443, 1359.5638888888889, /
489738, 1360.3833333333334, /
490035, 1361.2083333333333, /
490332, 1362.0333333333333, /
490633, 1362.8694444444445, /
490904, 1363.6222222222223, N
491211, 1364.475, f
491484, 1365.2333333333333, f
491769, 1366.025, /
492071, 1366.8638888888888, /
492364, 1367.6777777777777, /
492665, 1368.513888888889, /
492965, 1369.3472222222222, /
493263, 1370.175, /
493541, 1370.9472222222223, /
493798, 1371.661111111111, N
494114, 1372.5388888888888, f
494405, 1373.3472222222222, f
494700, 1374.1666666666667, /
494999, 1374.9972222222223, /
495298, 1375.8277777777778, /
495585, 1376.625, /
495860, 1377.388888888889, /
496157, 1378.213888888889, /
496453, 1379.036111111111, /
496725, 1379.7916666666667, N
497047, 1380.6861111111111, f
497336, 1381.4888888888888, f
497629, 1382.3027777777777, /
497909, 1383.0805555555555, /
498194, 1383.8722222222223, /
498486, 1384.6833333333334, /
498780, 1385.5, /
499083, 1386.3416666666667, /
499375, 1387.1527777777778, f
499681, 1388.0027777777777, f
499984, 1388.8444444444444, f
500241, 1389.5583333333334, /
500537, 1390.3805555555555, /
500828, 1391.1888888888889, /
501123, 1392.0083333333334, /
501426, 1392.85, /
501730, 1393.6944444444443, /
502012, 1394.4777777777779, /
502292, 1395.2555555555555, f
502606, 1396.1277777777777, f
502872, 1396.8666666666666, /
503163, 1397.675, /
503464, 1398.5111111111112, /
503771, 1399.3638888888888, /
504063, 1400.175, /
504340, 1400.9444444444443, /
504634, 1401.7611111111112, f
504939, 1402.6083333333333, f
505213, 1403.3694444444445, /
505513, 1404.2027777777778, /
505816, 1405.0444444444445, /
506113, 1405.8694444444445, /
506392, 1406.6444444444444, /
506678, 1407.4388888888889, /
506967, 1408.2416666666666, f
507257, 1409.0472222222222, f
507558, 1409.8833333333334, f
507859, 1410.7194444444444, /
508166, 1411.5722222222223, /
508446, 1412.35, /
508725, 1413.125, /
509021, 1413.9472222222223, /
509305, 1414.736111111111, /
509599, 1415.5527777777777, f
509922, 1416.45, f
510208, 1417.2444444444445, /
510495, 1418.0416666666667, /
510773, 1418.8138888888889, /
511069, 1419.6361111111112, /
511353, 1420.425, /
511640, 1421.2222222222222, /
511938, 1422.05, f
512247, 1422.9083333333333, f
512544, 1423.7333333333333, f
512826, 1424.5166666666667, /
513116, 1425.3222222222223, /
513406, 1426.1277777777777, /
513690, 1426.9166666666667, /
513988, 1427.7444444444445, /
514292, 1428.588888888889, /
514573, 1429.3694444444445, N
514880, 1430.2222222222222, f
515155, 1430.986111111111, /
515443, 1431.786111111111, /
515725, 1432.5694444444443, /
516023, 1433.3972222222221, /
516325, 1434.236111111111, /
516633, 1435.0916666666667, /
516923, 1435.8972222222221, /
517198, 1436.661111111111, f
517471, 1437.4194444444445, N
517778, 1438.2722222222221, f
518048, 1439.0222222222221, f
518349, 1439.8583333333333, /
518661, 1440.725, /
518957, 1441.5472222222222, /
519239, 1442.3305555555555, /
519533, 1443.1472222222221, /
519818, 1443.9388888888889, /
520093, 1444.7027777777778, f
520391, 1445.5305555555556, f
520723, 1446.4527777777778, f
521007, 1447.2416666666666, f
521294, 1448.0388888888888, /
521582, 1448.838888888889, /
521871, 1449.6416666666667, /
522151, 1450.4194444444445, /
522446, 1451.2388888888888, /
522750, 1452.0833333333333, /
523060, 1452.9444444444443, f
523370, 1453.8055555555557, f
523631, 1454.5305555555556, /
523924, 1455.3444444444444, /
524205, 1456.125, /
524493, 1456.925, /
524792, 1457.7555555555555, /
525103, 1458.6194444444445, /
525396, 1459.4333333333334, f
525690, 1460.25, f
525974, 1461.0388888888888, f
526258, 1461.8277777777778, /
526536, 1462.6, /
526831, 1463.4194444444445, /
527141, 1464.2805555555556, /
527442, 1465.1166666666666, /
527732, 1465.9222222222222, f
528017, 1466.713888888889, f
528334, 1467.5944444444444, f
528590, 1468.3055555555557, /
528880, 1469.111111111111, /
529183, 1469.9527777777778, /
529492, 1470.8111111111111, /
529783, 1471.6194444444445, /
530070, 1472.4166666666667, /
530357, 1473.213888888889, f
530653, 1474.036111111111, f
530926, 1474.7944444444445, /
531227, 1475.6305555555555, /
531534, 1476.4833333333333, /
531828, 1477.3, /
532119, 1478.1083333333333, /
532409, 1478.9138888888888, /
532681, 1479.6694444444445, f
532969, 1480.4694444444444, f
533264, 1481.2888888888888, f
533578, 1482.161111111111, /
533876, 1482.9888888888888, /
534162, 1483.7833333333333, /
534458, 1484.6055555555556, /
534741, 1485.3916666666667, /
535017, 1486.1583333333333, /
535288, 1486.911111111111, N
535624, 1487.8444444444444, f
535912, 1488.6444444444444, f
536204, 1489.4555555555555, /
536503, 1490.286111111111, /
536788, 1491.0777777777778, /
537065, 1491.8472222222222, /
537350, 1492.638888888889, /
537649, 1493.4694444444444, /
537927, 1494.2416666666666, N
538240, 1495.111111111111, f
538521, 1495.8916666666667, f
538815, 1496.7083333333333, /
539093, 1497.4805555555556, /
539378, 1498.2722222222221, /
539673, 1499.0916666666667, /
539981, 1499.9472222222223, /
540278, 1500.7722222222221, /
540416, 1501.1555555555556, +
540554, 1501.5388888888888, N
540851, 1502.3638888888888, N
541153, 1503.2027777777778, f
541417, 1503.9361111111111, f
541560, 1504.3333333333333, +
541704, 1504.7333333333333, /
542011, 1505.5861111111112, /
542315, 1506.4305555555557, /
542607, 1507.2416666666666, /
542911, 1508.0861111111112, /
543195, 1508.875, /
543458, 1509.6055555555556, N
543763, 1510.4527777777778, f
544053, 1511.2583333333334, f
544360, 1512.111111111111, /
544656, 1512.9333333333334, /
544957, 1513.7694444444444, /
545246, 1514.5722222222223, /
545521, 1515.3361111111112, /
545806, 1516.1277777777777, /
546095, 1516.9305555555557, f
546422, 1517.838888888889, f
546700, 1518.611111111111, /
546998, 1519.4388888888889, /
547294, 1520.2611111111112, /
547571, 1521.0305555555556, /
547854, 1521.8166666666666, /
548145, 1522.625, /
548463, 1523.5083333333334, f
548769, 1524.3583333333333, f
549044, 1525.1222222222223, /
549348, 1525.9666666666667, /
549631, 1526.7527777777777, /
549906, 1527.5166666666667, /
550188, 1528.3, /
550491, 1529.1416666666667, /
550808, 1530.0222222222221, f
551087, 1530.7972222222222, f
551397, 1531.6583333333333, /
551688, 1532.4666666666667, /
551961, 1533.225, /
552243, 1534.0083333333334, /
552538, 1534.8277777777778, /
552842, 1535.6722222222222, f
553157, 1536.5472222222222, f
553442, 1537.338888888889, /
553736, 1538.1555555555556, /
554014, 1538.9277777777777, /
554298, 1539.7166666666667, /
554583, 1540.5083333333334, /
554887, 1541.3527777777779, /
555183, 1542.175, f
555504, 1543.0666666666666, f
555787, 1543.8527777777779, /
556067, 1544.6305555555555, /
556347, 1545.4083333333333, /
556631, 1546.1972222222223, /
556932, 1547.0333333333333, /
557231, 1547.8638888888888, /
557513, 1548.6472222222221, N
557840, 1549.5555555555557, f
558122, 1550.338888888889, /
558397, 1551.1027777777779, /
558675, 1551.875, /
558971, 1552.6972222222223, /
559275, 1553.5416666666667, /
559570, 1554.361111111111, /
559879, 1555.2194444444444, /
560153, 1555.9805555555556, N
560449, 1556.8027777777777, f
560720, 1557.5555555555557, f
561008, 1558.3555555555556, /
561304, 1559.1777777777777, /
561602, 1560.0055555555555, /
561907, 1560.8527777777779, /
562205, 1561.6805555555557, /
562486, 1562.4611111111112, /
562771, 1563.2527777777777, /
563029, 1563.9694444444444, N
563341, 1564.8361111111112, f
563632, 1565.6444444444444, f
563930, 1566.4722222222222, /
564239, 1567.3305555555555, /
564527, 1568.1305555555555, /
564806, 1568.9055555555556, /
565088, 1569.6888888888889, /
565384, 1570.5111111111112, /
565678, 1571.3277777777778, /
565951, 1572.0861111111112, N
566289, 1573.025, f
566573, 1573.8138888888889, f
566848, 1574.5777777777778, /
567127, 1575.3527777777779, /
567419, 1576.1638888888888, /
567713, 1576.9805555555556, /
568006, 1577.7944444444445, /
568318, 1578.661111111111, /
568620, 1579.5, f
568905, 1580.2916666666667, f
569181, 1581.0583333333334, f
569466, 1581.85, /
569756, 1582.6555555555556, /
570049, 1583.4694444444444, /
570355, 1584.3194444444443, /
570658, 1585.161111111111, /
570946, 1585.9611111111112, /
571226, 1586.7388888888888, f
571517, 1587.5472222222222, f
571806, 1588.35, f
572100, 1589.1666666666667, /
572397, 1589.9916666666666, /
572710, 1590.861111111111, /
573002, 1591.6722222222222, /
573282, 1592.45, /
573564, 1593.2333333333333, /
573856, 1594.0444444444445, f
574171, 1594.9194444444445, f
574441, 1595.6694444444445, /
574757, 1596.5472222222222, /
575054, 1597.3722222222223, /
575334, 1598.15, /
575616, 1598.9333333333334, /
575903, 1599.7305555555556, /
576191, 1600.5305555555556, f
576499, 1601.3861111111112, f
576793, 1602.2027777777778, f
577099, 1603.0527777777777, /
577385, 1603.8472222222222, /
577670, 1604.638888888889, /
577954, 1605.4277777777777, /
578242, 1606.2277777777779, /
578521, 1607.0027777777777, f
578827, 1607.8527777777779, f
579142, 1608.7277777777779, f
579437, 1609.5472222222222, /
579727, 1610.3527777777779, /
580009, 1611.1361111111112, /
580302, 1611.95, /
580588, 1612.7444444444445, /
580879, 1613.5527777777777, /
581181, 1614.3916666666667, N
581490, 1615.25, f
581793, 1616.0916666666667, f
582056, 1616.8222222222223, f
582350, 1617.638888888889, /
582634, 1618.4277777777777, /
582923, 1619.2305555555556, /
583241, 1620.1138888888888, /
583543, 1620.9527777777778, /
583830, 1621.75, /
584087, 1622.463888888889, N
584381, 1623.2805555555556, f
584666, 1624.0722222222223, f
584953, 1624.8694444444445, /
585259, 1625.7194444444444, /
585566, 1626.5722222222223, /
585859, 1627.3861111111112, /
586149, 1628.1916666666666, /
586433, 1628.9805555555556, /
586721, 1629.7805555555556, /
586986, 1630.5166666666667, N
587287, 1631.3527777777779, f
587624, 1632.2888888888888, f
587899, 1633.0527777777777, f
588192, 1633.8666666666666, /
588476, 1634.6555555555556, /
588768, 1635.4666666666667, /
589051, 1636.2527777777777, /
589336, 1637.0444444444445, /
589651, 1637.9194444444445, /
589793, 1638.3138888888889, +
589936, 1638.7111111111112, N
590218, 1639.4944444444445, N
590538, 1640.3833333333334, f
590805, 1641.125, f
590947, 1641.5194444444444, +
591089, 1641.9138888888888, /
591371, 1642.6972222222223, /
591684, 1643.5666666666666, /
591986, 1644.4055555555556, /
592276, 1645.2111111111112, /
592566, 1646.0166666666667, /
592849, 1646.8027777777777, f
593153, 1647.6472222222221, f
593416, 1648.3777777777777, f
593718, 1649.2166666666667, /
594026, 1650.0722222222223, /
594323, 1650.8972222222221, /
594619, 1651.7194444444444, /
594903, 1652.5083333333334, /
595192, 1653.3111111111111, /
595474, 1654.0944444444444, f
595784, 1654.9555555555555, f
596071, 1655.7527777777777, /
596368, 1656.5777777777778, /
596666, 1657.4055555555556, /
596953, 1658.2027777777778, /
597244, 1659.0111111111112, /
597523, 1659.786111111111, /
597801, 1660.5583333333334, f
598121, 1661.4472222222223, f
598415, 1662.263888888889, f
598707, 1663.075, /
599000, 1663.888888888889, /
599294, 1664.7055555555555, /
599574, 1665.4833333333333, /
599853, 1666.2583333333334, /
600160, 1667.111111111111, /
600460, 1667.9444444444443, f
600779, 1668.8305555555555, f
601047, 1669.575, /
601337, 1670.3805555555555, /
601623, 1671.175, /
601903, 1671.9527777777778, /
602198, 1672.7722222222221, /
602503, 1673.6194444444445, /
602797, 1674.4361111111111, f
603096, 1675.2666666666667, f
603411, 1676.1416666666667, f
603681, 1676.8916666666667, f
603959, 1677.6638888888888, /
604246, 1678.4611111111112, /
604549, 1679.3027777777777, /
604844, 1680.1222222222223, /
605145, 1680.9583333333333, /
605439, 1681.775, /
605714, 1682.5388888888888, N
606008, 1683.3555555555556, f
606283, 1684.1194444444445, f
606588, 1684.9666666666667, /
606886, 1685.7944444444445, /
607182, 1686.6166666666666, /
607480, 1687.4444444444443, /
607778, 1688.2722222222221, /
608059, 1689.0527777777777, /
608336, 1689.8222222222223, /
608632, 1690.6444444444444, f
608936, 1691.4888888888888, f
609254, 1692.3722222222223, f
609527, 1693.1305555555555, /
609824, 1693.9555555555555, /
610112, 1694.7555555555555, /
610389, 1695.525, /
610679, 1696.3305555555555, /
610981, 1697.1694444444445, /
611278, 1697.9944444444445, /
611580, 1698.8333333333333, /
611869, 1699.6361111111112, f
612169, 1700.4694444444444, f
612467, 1701.2972222222222, f
612729, 1702.025, /
613028, 1702.8555555555556, /
613321, 1703.6694444444445, /
613622, 1704.5055555555555, /
613922, 1705.338888888889, /
614219, 1706.1638888888888, /
614499, 1706.9416666666666, /
614768, 1707.6888888888889, f
615074, 1708.5388888888888, f
615370, 1709.361111111111, f
615666, 1710.1833333333334, /
615965, 1711.013888888889, /
616267, 1711.8527777777779, /
616552, 1712.6444444444444, /
616828, 1713.411111111111, /
617125, 1714.236111111111, /
617418, 1715.05, /
617713, 1715.8694444444445, f
618028, 1716.7444444444445, f
618311, 1717.5305555555556, /
618604, 1718.3444444444444, /
618882, 1719.1166666666666, /
619170, 1719.9166666666667, /
619465, 1720.736111111111, /
619758, 1721.55, /
620057, 1722.3805555555555, f
620348, 1723.1888888888889, f
620673, 1724.0916666666667, f
620933, 1724.8138888888889, /
621216, 1725.6, /
621507, 1726.4083333333333, /
621794, 1727.2055555555555, /
622100, 1728.0555555555557, /
622402, 1728.8944444444444, /
622700, 1729.7222222222222, f
622979, 1730.4972222222223, f
623262, 1731.2833333333333, f
623558, 1732.1055555555556, /
623847, 1732.9083333333333, /
624142, 1733.7277777777779, /
624444, 1734.5666666666666, /
624753, 1735.425, /
625040, 1736.2222222222222, /
625303, 1736.9527777777778, N
625600, 1737.7777777777778, f
625923, 1738.675, f
626186, 1739.4055555555556, /
626486, 1740.2388888888888, /
626794, 1741.0944444444444, /
627088, 1741.911111111111, /
627365, 1742.6805555555557, /
627657, 1743.4916666666666, /
627947, 1744.2972222222222, /
628226, 1745.0722222222223, f
628533, 1745.925, f
628862, 1746.838888888889, f
629134, 1747.5944444444444, /
629414, 1748.3722222222223, /
629701, 1749.1694444444445, /
629989, 1749.9694444444444, /
630273, 1750.7583333333334, /
630576, 1751.6, /
630877, 1752.4361111111111, /
631173, 1753.2583333333334, f
631459, 1754.0527777777777, N
631758, 1754.8833333333334, f
632039, 1755.6638888888888, f
632323, 1756.4527777777778, /
632614, 1757.2611111111112, /
632916, 1758.1, /
633227, 1758.963888888889, /
633520, 1759.7777777777778, /
633799, 1760.5527777777777, /
634095, 1761.375, /
634366, 1762.1277777777777, N
634649, 1762.9138888888888, f
634973, 1763.8138888888889, f
635265, 1764.625, f
635566, 1765.4611111111112, /
635850, 1766.25, /
636141, 1767.0583333333334, /
636426, 1767.85, /
636707, 1768.6305555555555, /
637003, 1769.4527777777778, /
637303, 1770.286111111111, f
637612, 1771.1444444444444, f
637925, 1772.013888888889, f
638188, 1772.7444444444445, /
638476, 1773.5444444444445, /
638757, 1774.325, /
639054, 1775.15, /
639357, 1775.9916666666666, /
639665, 1776.8472222222222, /
639957, 1777.6583333333333, /
640243, 1778.4527777777778, f
640555, 1779.3194444444443, f
640813, 1780.036111111111, /
641097, 1780.825, /
641396, 1781.6555555555556, /
641710, 1782.5277777777778, /
642005, 1783.3472222222222, /
642290, 1784.138888888889, /
642586, 1784.9611111111112, f
642866, 1785.7388888888888, f
643147, 1786.5194444444444, f
643443, 1787.3416666666667, /
643751, 1788.1972222222223, /
644052, 1789.0333333333333, /
644340, 1789.8333333333333, /
644634, 1790.65, /
644919, 1791.4416666666666, /
645197, 1792.213888888889, f
645495, 1793.0416666666667, f
645788, 1793.8555555555556, f
646097, 1794.713888888889, /
646391, 1795.5305555555556, /
646682, 1796.338888888889, /
646970, 1797.138888888889, /
647247, 1797.9083333333333, /
647539, 1798.7194444444444, /
647836, 1799.5444444444445, f
648169, 1800.4694444444444, f
648442, 1801.2277777777779, /
648730, 1802.0277777777778, /
649022, 1802.838888888889, /
649300, 1803.611111111111, /
649580, 1804.388888888889, /
649876, 1805.2111111111112, /
