67, 0.18611111111111112, +
197, 0.5472222222222223, N
459, 1.275, N
708, 1.9666666666666666, N
965, 2.6805555555555554, N
1222, 3.3944444444444444, N
1479, 4.108333333333333, N
1741, 4.836111111111111, N
2015, 5.597222222222222, N
2287, 6.352777777777778, N
2550, 7.083333333333333, N
2803, 7.786111111111111, N
3052, 8.477777777777778, N
3303, 9.175, N
3563, 9.897222222222222, N
3835, 10.652777777777779, N
4102, 11.394444444444444, N
4371, 12.141666666666667, N
4635, 12.875, N
4901, 13.613888888888889, N
5154, 14.316666666666666, N
5407, 15.019444444444444, N
5561, 15.447222222222223, V
5923, 16.45277777777778, N
6195, 17.208333333333332, N
6468, 17.966666666666665, N
6736, 18.711111111111112, N
6996, 19.433333333333334, N
7246, 20.127777777777776, N
7506, 20.85, N
7767, 21.575, N
7922, 22.005555555555556, V
8290, 23.02777777777778, N
8564, 23.788888888888888, N
8829, 24.525, N
9093, 25.258333333333333, N
9350, 25.97222222222222, N
9600, 26.666666666666668, N
9845, 27.34722222222222, N
10105, 28.069444444444443, N
10380, 28.833333333333332, N
10645, 29.569444444444443, N
10908, 30.3, N
11168, 31.022222222222222, N
11424, 31.733333333333334, N
11676, 32.43333333333333, N
11931, 33.141666666666666, N
12187, 33.852777777777774, N
12449, 34.580555555555556, N
12625, 35.06944444444444, V
12987, 36.075, N
13252, 36.81111111111111, N
13507, 37.519444444444446, N
13755, 38.208333333333336, N
14006, 38.90555555555556, N
14253, 39.59166666666667, N
14517, 40.325, N
14786, 41.07222222222222, N
15053, 41.81388888888889, N
15311, 42.53055555555556, N
15575, 43.263888888888886, N
15834, 43.983333333333334, N
16084, 44.67777777777778, N
16335, 45.375, N
16590, 46.083333333333336, N
16854, 46.81666666666667, N
17128, 47.577777777777776, N
17398, 48.327777777777776, N
17660, 49.05555555555556, N
17916, 49.766666666666666, N
18168, 50.46666666666667, N
18426, 51.18333333333333, N
18682, 51.894444444444446, N
18946, 52.62777777777778, N
19213, 53.36944444444445, N
19483, 54.11944444444445, N
19747, 54.852777777777774, N
20008, 55.577777777777776, N
20262, 56.28333333333333, N
20515, 56.986111111111114, N
20764, 57.67777777777778, N
21031, 58.419444444444444, N
21202, 58.894444444444446, V
21576, 59.93333333333333, N
21838, 60.66111111111111, N
22100, 61.388888888888886, N
22351, 62.08611111111111, N
22604, 62.78888888888889, N
22860, 63.5, N
23114, 64.20555555555555, N
23376, 64.93333333333334, N
23641, 65.66944444444445, N
23916, 66.43333333333334, N
24180, 67.16666666666667, N
24429, 67.85833333333333, N
24677, 68.54722222222222, N
24842, 69.00555555555556, V
25191, 69.975, N
25462, 70.72777777777777, N
25732, 71.47777777777777, N
25997, 72.21388888888889, N
26254, 72.92777777777778, N
26516, 73.65555555555555, N
26771, 74.3638888888889, N
27020, 75.05555555555556, N
27273, 75.75833333333334, N
27529, 76.46944444444445, N
27795, 77.20833333333333, N
28066, 77.96111111111111, N
28335, 78.70833333333333, N
28590, 79.41666666666667, N
28835, 80.09722222222223, N
29089, 80.80277777777778, N
29349, 81.525, N
29605, 82.23611111111111, N
29869, 82.96944444444445, N
30137, 83.71388888888889, N
30401, 84.44722222222222, N
30662, 85.17222222222222, N
30739, 85.3861111111111, ~
30917, 85.88055555555556, N
31165, 86.56944444444444, N
31306, 86.96111111111111, ~
31416, 87.26666666666667, N
31669, 87.96944444444445, N
31934, 88.70555555555555, N
32207, 89.46388888888889, N
32476, 90.21111111111111, N
32735, 90.93055555555556, N
32986, 91.62777777777778, N
33234, 92.31666666666666, N
33490, 93.02777777777777, N
33749, 93.74722222222222, N
34010, 94.47222222222223, N
34274, 95.20555555555555, N
34542, 95.95, N
34818, 96.71666666666667, N
35076, 97.43333333333334, N
35322, 98.11666666666666, N
35571, 98.80833333333334, N
35830, 99.52777777777777, N
36093, 100.25833333333334, N
36366, 101.01666666666667, N
36633, 101.75833333333334, N
36793, 102.20277777777778, V
37151, 103.19722222222222, N
37413, 103.925, N
37666, 104.62777777777778, N
37915, 105.31944444444444, N
38166, 106.01666666666667, N
38430, 106.75, N
38692, 107.47777777777777, N
38959, 108.21944444444445, N
39225, 108.95833333333333, N
39477, 109.65833333333333, N
39720, 110.33333333333333, N
39975, 111.04166666666667, N
40231, 111.75277777777778, N
40489, 112.46944444444445, N
40745, 113.18055555555556, N
41009, 113.91388888888889, N
41272, 114.64444444444445, N
41527, 115.35277777777777, N
41781, 116.05833333333334, N
42027, 116.74166666666666, N
42274, 117.42777777777778, N
42524, 118.12222222222222, N
42793, 118.86944444444444, N
43058, 119.60555555555555, N
43322, 120.33888888888889, N
43573, 121.03611111111111, N
43819, 121.71944444444445, N
44061, 122.39166666666667, N
44313, 123.09166666666667, N
44567, 123.79722222222222, N
44816, 124.4888888888889, N
45075, 125.20833333333333, N
45339, 125.94166666666666, N
45608, 126.68888888888888, N
45763, 127.11944444444444, V
46102, 128.0611111111111, N
46347, 128.74166666666667, N
46594, 129.42777777777778, N
46844, 130.12222222222223, N
47107, 130.8527777777778, N
47371, 131.5861111111111, N
47635, 132.31944444444446, N
47888, 133.0222222222222, N
48140, 133.72222222222223, N
48393, 134.425, N
48643, 135.11944444444444, N
48889, 135.80277777777778, N
49144, 136.51111111111112, N
49410, 137.25, N
49678, 137.99444444444444, N
49943, 138.73055555555555, N
50198, 139.4388888888889, N
50448, 140.13333333333333, N
50692, 140.8111111111111, N
50949, 141.525, N
51207, 142.24166666666667, N
51472, 142.9777777777778, N
51736, 143.7111111111111, N
52001, 144.44722222222222, N
52257, 145.15833333333333, N
52512, 145.86666666666667, N
52769, 146.58055555555555, N
53020, 147.27777777777777, N
53271, 147.975, N
53537, 148.7138888888889, N
53815, 149.48611111111111, N
54078, 150.21666666666667, N
54333, 150.925, N
54588, 151.63333333333333, N
54837, 152.325, N
55091, 153.03055555555557, N
55349, 153.74722222222223, N
55607, 154.4638888888889, N
55873, 155.20277777777778, N
56140, 155.94444444444446, N
56413, 156.70277777777778, N
56667, 157.40833333333333, N
56918, 158.10555555555555, N
57165, 158.79166666666666, N
57314, 159.20555555555555, V
57666, 160.18333333333334, N
57941, 160.94722222222222, N
58210, 161.69444444444446, N
58473, 162.425, N
58730, 163.13888888888889, N
58985, 163.84722222222223, N
59239, 164.55277777777778, N
59493, 165.25833333333333, N
59742, 165.95, N
60003, 166.675, N
60270, 167.41666666666666, N
60543, 168.175, N
60808, 168.9111111111111, N
61062, 169.61666666666667, N
61311, 170.30833333333334, N
61559, 170.99722222222223, N
61819, 171.71944444444443, N
62081, 172.44722222222222, N
62349, 173.19166666666666, N
62609, 173.9138888888889, N
62876, 174.65555555555557, N
63129, 175.35833333333332, N
63382, 176.0611111111111, N
63635, 176.76388888888889, N
63886, 177.4611111111111, N
64135, 178.15277777777777, N
64400, 178.88888888888889, N
64674, 179.65, N
64937, 180.38055555555556, N
65187, 181.075, N
65437, 181.76944444444445, N
65686, 182.4611111111111, N
65933, 183.1472222222222, N
66189, 183.85833333333332, N
66444, 184.56666666666666, N
66706, 185.29444444444445, N
66867, 185.74166666666667, V
67228, 186.74444444444444, N
67487, 187.4638888888889, N
67736, 188.15555555555557, N
67978, 188.82777777777778, N
68225, 189.51388888888889, N
68475, 190.20833333333334, N
68740, 190.94444444444446, N
69009, 191.69166666666666, N
69269, 192.4138888888889, N
69522, 193.11666666666667, N
69772, 193.8111111111111, N
70027, 194.51944444444445, N
70273, 195.20277777777778, N
70523, 195.8972222222222, N
70780, 196.61111111111111, N
71046, 197.35, N
71311, 198.0861111111111, N
71579, 198.83055555555555, N
71831, 199.53055555555557, N
72079, 200.21944444444443, N
72326, 200.90555555555557, N
72485, 201.34722222222223, V
72846, 202.35, N
73117, 203.1027777777778, N
73378, 203.82777777777778, N
73643, 204.5638888888889, N
73903, 205.2861111111111, N
74159, 205.99722222222223, N
74299, 206.38611111111112, V
74659, 207.38611111111112, N
74917, 208.1027777777778, N
75183, 208.84166666666667, N
75459, 209.60833333333332, N
75727, 210.3527777777778, N
75983, 211.0638888888889, N
76232, 211.75555555555556, N
76484, 212.45555555555555, N
76736, 213.15555555555557, N
76996, 213.87777777777777, N
77257, 214.6027777777778, N
77526, 215.35, N
77787, 216.075, N
78055, 216.81944444444446, N
78312, 217.53333333333333, N
78561, 218.225, N
78807, 218.90833333333333, N
79062, 219.61666666666667, N
79316, 220.32222222222222, N
79584, 221.06666666666666, N
79856, 221.82222222222222, N
80120, 222.55555555555554, N
80369, 223.24722222222223, N
80624, 223.95555555555555, N
80882, 224.67222222222222, N
81130, 225.36111111111111, N
81379, 226.05277777777778, N
81641, 226.78055555555557, N
81906, 227.51666666666668, N
82171, 228.25277777777777, N
82437, 228.99166666666667, N
82690, 229.69444444444446, N
82934, 230.37222222222223, N
83182, 231.0611111111111, N
83444, 231.7888888888889, N
83703, 232.50833333333333, N
83970, 233.25, N
84231, 233.975, N
84493, 234.70277777777778, N
84746, 235.40555555555557, N
85003, 236.11944444444444, N
85257, 236.825, N
85506, 237.51666666666668, N
85760, 238.22222222222223, N
86031, 238.975, N
86305, 239.73611111111111, N
86570, 240.47222222222223, N
86821, 241.16944444444445, N
87072, 241.86666666666667, N
87318, 242.55, N
87572, 243.25555555555556, N
87832, 243.9777777777778, N
88094, 244.70555555555555, N
88365, 245.45833333333334, N
88631, 246.19722222222222, N
88748, 246.5222222222222, ~
88901, 246.94722222222222, N
89157, 247.65833333333333, N
89408, 248.35555555555555, N
89656, 249.04444444444445, N
89912, 249.75555555555556, N
90172, 250.4777777777778, N
90444, 251.23333333333332, N
90715, 251.98611111111111, N
90981, 252.725, N
91233, 253.425, N
91486, 254.12777777777777, N
91746, 254.85, N
92000, 255.55555555555554, N
92254, 256.2611111111111, N
92522, 257.00555555555553, N
92791, 257.7527777777778, N
93060, 258.5, N
93330, 259.25, N
93583, 259.9527777777778, N
93829, 260.6361111111111, N
94084, 261.34444444444443, N
94354, 262.09444444444443, N
94619, 262.8305555555556, N
94885, 263.56944444444446, N
95156, 264.3222222222222, N
95347, 264.85277777777776, |
95424, 265.06666666666666, N
95681, 265.78055555555557, N
95936, 266.4888888888889, N
96189, 267.19166666666666, N
96445, 267.90277777777777, N
96707, 268.63055555555553, N
96985, 269.40277777777777, N
97256, 270.15555555555557, N
97522, 270.89444444444445, N
97777, 271.60277777777776, N
98030, 272.30555555555554, N
98278, 272.99444444444447, N
98541, 273.725, N
98621, 273.9472222222222, ~
98809, 274.46944444444443, N
99077, 275.2138888888889, N
99343, 275.9527777777778, N
99617, 276.7138888888889, N
99881, 277.4472222222222, N
100135, 278.15277777777777, N
100383, 278.84166666666664, N
100635, 279.5416666666667, N
100894, 280.2611111111111, N
101165, 281.0138888888889, N
101440, 281.77777777777777, N
101700, 282.5, N
101958, 283.21666666666664, N
102114, 283.65, V
102469, 284.6361111111111, N
102556, 284.8777777777778, ~
102720, 285.3333333333333, N
102973, 286.0361111111111, N
103234, 286.7611111111111, N
103501, 287.5027777777778, N
103763, 288.23055555555555, N
104025, 288.9583333333333, N
104278, 289.6611111111111, N
104528, 290.35555555555555, N
104771, 291.03055555555557, N
105027, 291.7416666666667, N
105293, 292.48055555555555, N
105559, 293.21944444444443, N
105817, 293.93611111111113, N
106081, 294.6694444444444, N
106338, 295.3833333333333, N
106430, 295.6388888888889, |
106589, 296.0805555555556, N
106663, 296.2861111111111, ~
106842, 296.78333333333336, N
107090, 297.47222222222223, N
107344, 298.1777777777778, N
107603, 298.89722222222224, N
107876, 299.65555555555557, N
108026, 300.0722222222222, V
108394, 301.09444444444443, N
108646, 301.7944444444444, N
108896, 302.4888888888889, N
109140, 303.1666666666667, N
109396, 303.8777777777778, N
109661, 304.6138888888889, N
109926, 305.35, N
110187, 306.075, N
110453, 306.81388888888887, N
110715, 307.5416666666667, N
110963, 308.23055555555555, N
111206, 308.90555555555557, N
111358, 309.3277777777778, ~
111456, 309.6, N
111711, 310.30833333333334, N
111976, 311.0444444444444, N
112247, 311.7972222222222, N
112508, 312.52222222222224, N
112560, 312.6666666666667, ~
112762, 313.22777777777776, N
113014, 313.9277777777778, N
113270, 314.6388888888889, N
113518, 315.3277777777778, N
113773, 316.0361111111111, N
114034, 316.7611111111111, N
114304, 317.5111111111111, N
114567, 318.2416666666667, N
114833, 318.98055555555555, N
115088, 319.68888888888887, N
115337, 320.38055555555553, N
115582, 321.06111111111113, N
115838, 321.77222222222224, N
116104, 322.5111111111111, N
116375, 323.2638888888889, N
116638, 323.99444444444447, N
116900, 324.72222222222223, N
117157, 325.43611111111113, N
117412, 326.14444444444445, N
117667, 326.85277777777776, N
117917, 327.5472222222222, N
118173, 328.2583333333333, N
118343, 328.73055555555555, V
118714, 329.7611111111111, N
118982, 330.50555555555553, N
119238, 331.21666666666664, N
119486, 331.90555555555557, N
119737, 332.60277777777776, N
119913, 333.09166666666664, |
119988, 333.3, N
120243, 334.0083333333333, N
120508, 334.74444444444447, N
120776, 335.4888888888889, N
121034, 336.2055555555556, N
121301, 336.9472222222222, N
121560, 337.6666666666667, N
121812, 338.3666666666667, N
122056, 339.0444444444444, N
122311, 339.7527777777778, N
122568, 340.46666666666664, N
122838, 341.21666666666664, N
123113, 341.98055555555555, N
123248, 342.35555555555555, ~
123377, 342.7138888888889, N
123628, 343.4111111111111, N
123879, 344.10833333333335, N
124141, 344.8361111111111, N
124200, 345.0, ~
124392, 345.53333333333336, N
124644, 346.23333333333335, N
124911, 346.975, N
125182, 347.72777777777776, N
125449, 348.46944444444443, N
125715, 349.2083333333333, N
125969, 349.9138888888889, N
126111, 350.30833333333334, V
126467, 351.2972222222222, N
126734, 352.0388888888889, N
127000, 352.77777777777777, N
127270, 353.52777777777777, N
127536, 354.26666666666665, N
127798, 354.99444444444447, N
128052, 355.7, N
128309, 356.4138888888889, N
128565, 357.125, N
128820, 357.8333333333333, N
129080, 358.55555555555554, N
129351, 359.30833333333334, N
129626, 360.0722222222222, N
129891, 360.80833333333334, N
130143, 361.5083333333333, N
130392, 362.2, N
130645, 362.90277777777777, N
130900, 363.6111111111111, N
131161, 364.3361111111111, N
131425, 365.06944444444446, N
131691, 365.80833333333334, N
131954, 366.5388888888889, N
132219, 367.275, N
132469, 367.96944444444443, N
132718, 368.6611111111111, N
132964, 369.34444444444443, N
133223, 370.06388888888887, N
133485, 370.7916666666667, N
133758, 371.55, N
134026, 372.2944444444444, N
134289, 373.025, N
134536, 373.7111111111111, N
134789, 374.4138888888889, N
135047, 375.13055555555553, N
135304, 375.84444444444443, N
135559, 376.5527777777778, N
135828, 377.3, N
136095, 378.0416666666667, N
136365, 378.7916666666667, N
136626, 379.51666666666665, N
136878, 380.21666666666664, N
137126, 380.90555555555557, N
137379, 381.60833333333335, N
137650, 382.3611111111111, N
137917, 383.10277777777776, N
138184, 383.84444444444443, N
138448, 384.5777777777778, N
138713, 385.31388888888887, N
138962, 386.00555555555553, N
139219, 386.71944444444443, N
139474, 387.4277777777778, N
139730, 388.1388888888889, N
139994, 388.8722222222222, N
140273, 389.64722222222224, N
140545, 390.40277777777777, N
140808, 391.1333333333333, N
141061, 391.8361111111111, N
141309, 392.525, N
141559, 393.21944444444443, N
141823, 393.9527777777778, N
142093, 394.7027777777778, N
142360, 395.44444444444446, N
142624, 396.1777777777778, N
142894, 396.9277777777778, N
143156, 397.65555555555557, N
143409, 398.35833333333335, N
143657, 399.0472222222222, N
143912, 399.75555555555553, N
144176, 400.4888888888889, N
144449, 401.2472222222222, N
144722, 402.00555555555553, N
144986, 402.7388888888889, N
145245, 403.4583333333333, N
145496, 404.15555555555557, N
145753, 404.86944444444447, N
146008, 405.5777777777778, N
146267, 406.2972222222222, N
146531, 407.03055555555557, N
146801, 407.78055555555557, N
146948, 408.18888888888887, V
147327, 409.2416666666667, N
147583, 409.9527777777778, N
147834, 410.65, N
148082, 411.3388888888889, N
148342, 412.06111111111113, N
148613, 412.81388888888887, N
148885, 413.56944444444446, N
149143, 414.2861111111111, N
149402, 415.00555555555553, N
149654, 415.7055555555556, N
149905, 416.40277777777777, N
150161, 417.1138888888889, N
150414, 417.81666666666666, N
150672, 418.53333333333336, N
150937, 419.26944444444445, N
151213, 420.0361111111111, N
151473, 420.7583333333333, N
151724, 421.4555555555556, N
151972, 422.14444444444445, N
152224, 422.84444444444443, N
152474, 423.5388888888889, N
152734, 424.2611111111111, N
153001, 425.0027777777778, N
153268, 425.74444444444447, N
153530, 426.47222222222223, N
153796, 427.2111111111111, N
154053, 427.925, N
154305, 428.625, N
154556, 429.3222222222222, N
154816, 430.0444444444444, N
155079, 430.775, N
155354, 431.5388888888889, N
155628, 432.3, N
155886, 433.01666666666665, N
156137, 433.7138888888889, N
156390, 434.4166666666667, N
156647, 435.13055555555553, N
156804, 435.56666666666666, V
157166, 436.5722222222222, N
157432, 437.31111111111113, N
157698, 438.05, N
157964, 438.7888888888889, N
158223, 439.5083333333333, N
158470, 440.19444444444446, N
158586, 440.51666666666665, |
158719, 440.8861111111111, N
158968, 441.5777777777778, N
159231, 442.30833333333334, N
159497, 443.0472222222222, N
159765, 443.7916666666667, N
160028, 444.52222222222224, N
160283, 445.23055555555555, N
160531, 445.9194444444444, N
160782, 446.6166666666667, N
161035, 447.31944444444446, N
161288, 448.02222222222224, N
161547, 448.7416666666667, N
161815, 449.4861111111111, N
162090, 450.25, N
162350, 450.97222222222223, N
162595, 451.65277777777777, N
162842, 452.3388888888889, N
163094, 453.0388888888889, N
163347, 453.7416666666667, N
163608, 454.46666666666664, N
163759, 454.8861111111111, V
164142, 455.95, N
164406, 456.68333333333334, N
164669, 457.4138888888889, N
164923, 458.11944444444447, N
165172, 458.81111111111113, N
165421, 459.5027777777778, N
165681, 460.225, N
165846, 460.68333333333334, V
166216, 461.7111111111111, N
166493, 462.48055555555555, N
166752, 463.2, N
166999, 463.8861111111111, N
167254, 464.59444444444443, N
167512, 465.31111111111113, N
167769, 466.025, N
168028, 466.74444444444447, N
168297, 467.4916666666667, N
168562, 468.22777777777776, N
168827, 468.9638888888889, N
169088, 469.68888888888887, N
169335, 470.375, N
169586, 471.0722222222222, N
169843, 471.7861111111111, N
170115, 472.5416666666667, N
170382, 473.28333333333336, N
170650, 474.02777777777777, N
170916, 474.76666666666665, N
171176, 475.4888888888889, N
171428, 476.18888888888887, N
171683, 476.89722222222224, N
171937, 477.60277777777776, N
172198, 478.3277777777778, N
172461, 479.05833333333334, N
172732, 479.81111111111113, N
173000, 480.55555555555554, N
173262, 481.28333333333336, N
173510, 481.97222222222223, N
173758, 482.6611111111111, N
173932, 483.14444444444445, V
174273, 484.09166666666664, N
174543, 484.84166666666664, N
174806, 485.5722222222222, N
175072, 486.31111111111113, N
175329, 487.025, N
175591, 487.7527777777778, N
175839, 488.44166666666666, N
176088, 489.1333333333333, N
176337, 489.825, N
176601, 490.55833333333334, N
176871, 491.30833333333334, N
177138, 492.05, N
177402, 492.78333333333336, N
177659, 493.4972222222222, N
177902, 494.1722222222222, N
178156, 494.8777777777778, N
178413, 495.59166666666664, N
178670, 496.30555555555554, N
178925, 497.0138888888889, N
179192, 497.75555555555553, N
179453, 498.48055555555555, N
179713, 499.2027777777778, N
179972, 499.9222222222222, N
180217, 500.60277777777776, N
180463, 501.2861111111111, N
180721, 502.0027777777778, N
180995, 502.7638888888889, N
181259, 503.4972222222222, N
181522, 504.22777777777776, N
181784, 504.9555555555556, N
182039, 505.6638888888889, N
182289, 506.35833333333335, N
182544, 507.06666666666666, N
182799, 507.775, N
183060, 508.5, N
183323, 509.23055555555555, N
183598, 509.99444444444447, N
183866, 510.7388888888889, N
184124, 511.4555555555556, N
184373, 512.1472222222222, N
184621, 512.8361111111111, N
184872, 513.5333333333333, N
185138, 514.2722222222222, N
185410, 515.0277777777778, N
185677, 515.7694444444444, N
185942, 516.5055555555556, N
186205, 517.2361111111111, N
186465, 517.9583333333334, N
186718, 518.6611111111112, N
186967, 519.3527777777778, N
187223, 520.0638888888889, N
187490, 520.8055555555555, N
187762, 521.5611111111111, N
188031, 522.3083333333333, N
188289, 523.025, N
188543, 523.7305555555556, N
188790, 524.4166666666666, N
189047, 525.1305555555556, N
189300, 525.8333333333334, N
189560, 526.5555555555555, N
189821, 527.2805555555556, N
190092, 528.0333333333333, N
190356, 528.7666666666667, N
190613, 529.4805555555556, N
190867, 530.1861111111111, N
191117, 530.8805555555556, N
191365, 531.5694444444445, N
191627, 532.2972222222222, N
191901, 533.0583333333333, N
192170, 533.8055555555555, N
192430, 534.5277777777778, N
192692, 535.2555555555556, N
192943, 535.9527777777778, N
193196, 536.6555555555556, N
193453, 537.3694444444444, N
193711, 538.0861111111111, N
193976, 538.8222222222222, N
194244, 539.5666666666667, N
194520, 540.3333333333334, N
194784, 541.0666666666667, N
195037, 541.7694444444444, N
195287, 542.4638888888888, N
195542, 543.1722222222222, N
195798, 543.8833333333333, N
196069, 544.6361111111111, N
196339, 545.3861111111111, N
196607, 546.1305555555556, N
196870, 546.8611111111111, N
197136, 547.6, N
197392, 548.3111111111111, N
197646, 549.0166666666667, N
197901, 549.725, N
198164, 550.4555555555555, N
198328, 550.9111111111112, V
198704, 551.9555555555555, N
198753, 552.0916666666667, ~
198974, 552.7055555555555, N
199229, 553.4138888888889, N
199477, 554.1027777777778, N
199731, 554.8083333333333, N
199987, 555.5194444444444, N
200243, 556.2305555555556, N
200503, 556.9527777777778, N
200765, 557.6805555555555, N
201029, 558.4138888888889, N
201161, 558.7805555555556, ~
201291, 559.1416666666667, N
201545, 559.8472222222222, N
201790, 560.5277777777778, N
202040, 561.2222222222222, N
202295, 561.9305555555555, N
202561, 562.6694444444445, N
202829, 563.4138888888889, N
203096, 564.1555555555556, N
203354, 564.8722222222223, N
203609, 565.5805555555555, N
203858, 566.2722222222222, N
204110, 566.9722222222222, N
204367, 567.6861111111111, N
204629, 568.4138888888889, N
204889, 569.1361111111111, N
205158, 569.8833333333333, N
205431, 570.6416666666667, N
205691, 571.3638888888889, N
205935, 572.0416666666666, N
206183, 572.7305555555556, N
206436, 573.4333333333333, N
206697, 574.1583333333333, N
206967, 574.9083333333333, N
207237, 575.6583333333333, N
207501, 576.3916666666667, N
207765, 577.125, N
208030, 577.8611111111111, N
208281, 578.5583333333333, N
208530, 579.25, N
208788, 579.9666666666667, N
209058, 580.7166666666667, N
209328, 581.4666666666667, N
209602, 582.2277777777778, N
209868, 582.9666666666667, N
210125, 583.6805555555555, N
210242, 584.0055555555556, ~
210373, 584.3694444444444, N
210634, 585.0944444444444, N
210892, 585.8111111111111, N
211157, 586.5472222222222, N
211424, 587.2888888888889, N
211691, 588.0305555555556, N
211952, 588.7555555555556, N
212080, 589.1111111111111, ~
212213, 589.4805555555556, N
212473, 590.2027777777778, N
212720, 590.8888888888889, N
212971, 591.5861111111111, N
213236, 592.3222222222222, N
213513, 593.0916666666667, N
213784, 593.8444444444444, N
214048, 594.5777777777778, N
214309, 595.3027777777778, N
214564, 596.0111111111111, N
214821, 596.725, N
215081, 597.4472222222222, N
215338, 598.1611111111112, N
215605, 598.9027777777778, N
215876, 599.6555555555556, N
216154, 600.4277777777778, N
216417, 601.1583333333333, N
216672, 601.8666666666667, N
216922, 602.5611111111111, N
217179, 603.275, N
217436, 603.9888888888889, N
217704, 604.7333333333333, N
217978, 605.4944444444444, N
218247, 606.2416666666667, N
218507, 606.9638888888888, N
218766, 607.6833333333333, N
219023, 608.3972222222222, N
219277, 609.1027777777778, N
219529, 609.8027777777778, N
219792, 610.5333333333333, N
220061, 611.2805555555556, N
220334, 612.0388888888889, N
220607, 612.7972222222222, N
220867, 613.5194444444444, N
221115, 614.2083333333334, N
221371, 614.9194444444445, N
221634, 615.65, N
221897, 616.3805555555556, N
222161, 617.1138888888889, N
222431, 617.8638888888889, N
222700, 618.6111111111111, N
222962, 619.3388888888888, N
223225, 620.0694444444445, N
223476, 620.7666666666667, N
223730, 621.4722222222222, N
223990, 622.1944444444445, N
224268, 622.9666666666667, N
224537, 623.7138888888888, N
224806, 624.4611111111111, N
225067, 625.1861111111111, N
225231, 625.6416666666667, ~
225324, 625.9, N
225457, 626.2694444444444, ~
225578, 626.6055555555556, N
225838, 627.3277777777778, N
226096, 628.0444444444445, N
226362, 628.7833333333333, N
226629, 629.525, N
226905, 630.2916666666666, N
227170, 631.0277777777778, N
227334, 631.4833333333333, |
227426, 631.7388888888889, N
227678, 632.4388888888889, N
227932, 633.1444444444444, N
228185, 633.8472222222222, N
228316, 634.2111111111111, ~
228455, 634.5972222222222, N
228729, 635.3583333333333, N
228998, 636.1055555555556, N
229260, 636.8333333333334, N
229523, 637.5638888888889, N
229780, 638.2777777777778, N
230035, 638.9861111111111, N
230288, 639.6888888888889, N
230548, 640.4111111111112, N
230817, 641.1583333333333, N
231091, 641.9194444444445, N
231261, 642.3916666666667, V
231623, 643.3972222222222, N
231878, 644.1055555555556, N
232128, 644.8, N
232390, 645.5277777777778, N
232656, 646.2666666666667, N
232920, 647.0, N
233189, 647.7472222222223, N
233461, 648.5027777777777, N
233724, 649.2333333333333, N
233984, 649.9555555555555, N
234237, 650.6583333333333, N
234491, 651.3638888888889, N
234747, 652.075, N
235025, 652.8472222222222, N
235299, 653.6083333333333, N
235568, 654.3555555555556, N
235831, 655.0861111111111, N
236091, 655.8083333333333, N
236343, 656.5083333333333, N
236599, 657.2194444444444, N
236862, 657.95, N
237132, 658.7, N
237399, 659.4416666666667, N
237676, 660.2111111111111, N
237772, 660.4777777777778, ~
237945, 660.9583333333334, N
238086, 661.35, V
238446, 662.35, N
238699, 663.0527777777778, N
238952, 663.7555555555556, N
239215, 664.4861111111111, N
239493, 665.2583333333333, N
239760, 666.0, N
240018, 666.7166666666667, N
240279, 667.4416666666667, N
240537, 668.1583333333333, N
240638, 668.4388888888889, ~
240789, 668.8583333333333, N
241036, 669.5444444444445, N
241292, 670.2555555555556, N
241560, 671.0, N
241828, 671.7444444444444, N
241980, 672.1666666666666, V
242352, 673.2, N
242609, 673.9138888888889, N
242856, 674.6, N
243108, 675.3, N
243366, 676.0166666666667, N
243631, 676.7527777777777, N
243894, 677.4833333333333, N
244157, 678.2138888888888, N
244417, 678.9361111111111, N
244673, 679.6472222222222, N
244925, 680.3472222222222, N
245172, 681.0333333333333, N
245422, 681.7277777777778, N
245684, 682.4555555555555, N
245958, 683.2166666666667, N
246059, 683.4972222222223, ~
246225, 683.9583333333334, N
246484, 684.6777777777778, N
246739, 685.3861111111111, N
246994, 686.0944444444444, N
247245, 686.7916666666666, N
247498, 687.4944444444444, N
247754, 688.2055555555555, N
248018, 688.9388888888889, N
248282, 689.6722222222222, N
248556, 690.4333333333333, N
248816, 691.1555555555556, N
248880, 691.3333333333334, ~
249067, 691.8527777777778, N
249312, 692.5333333333333, N
249564, 693.2333333333333, N
249816, 693.9333333333333, N
250084, 694.6777777777778, N
250360, 695.4444444444445, N
250625, 696.1805555555555, N
250883, 696.8972222222222, N
251139, 697.6083333333333, N
251398, 698.3277777777778, N
251649, 699.025, N
251896, 699.7111111111111, N
252158, 700.4388888888889, N
252424, 701.1777777777778, N
252697, 701.9361111111111, N
252969, 702.6916666666667, N
253225, 703.4027777777778, N
253475, 704.0972222222222, N
253729, 704.8027777777778, N
253992, 705.5333333333333, N
254253, 706.2583333333333, N
254424, 706.7333333333333, V
254793, 707.7583333333333, N
255064, 708.5111111111111, N
255326, 709.2388888888889, N
255588, 709.9666666666667, N
255840, 710.6666666666666, N
256094, 711.3722222222223, N
256354, 712.0944444444444, N
256630, 712.8611111111111, N
256905, 713.625, N
257179, 714.3861111111111, N
257444, 715.1222222222223, N
257700, 715.8333333333334, N
257955, 716.5416666666666, N
258217, 717.2694444444444, N
258482, 718.0055555555556, N
258752, 718.7555555555556, N
259022, 719.5055555555556, N
259299, 720.275, N
259572, 721.0333333333333, N
259831, 721.7527777777777, N
260083, 722.4527777777778, N
260338, 723.1611111111112, N
260599, 723.8861111111111, N
260873, 724.6472222222222, N
261155, 725.4305555555555, N
261430, 726.1944444444445, N
261697, 726.9361111111111, N
261961, 727.6694444444445, N
262226, 728.4055555555556, N
262486, 729.1277777777777, N
262738, 729.8277777777778, N
263006, 730.5722222222222, N
263281, 731.3361111111111, N
263557, 732.1027777777778, N
263832, 732.8666666666667, N
264093, 733.5916666666667, N
264344, 734.2888888888889, N
264601, 735.0027777777777, N
264869, 735.7472222222223, N
265132, 736.4777777777778, N
265400, 737.2222222222222, N
265673, 737.9805555555556, N
265944, 738.7333333333333, N
266208, 739.4666666666667, N
266471, 740.1972222222222, N
266725, 740.9027777777778, N
266979, 741.6083333333333, N
267244, 742.3444444444444, N
267526, 743.1277777777777, N
267796, 743.8777777777777, N
268066, 744.6277777777777, N
268328, 745.3555555555556, N
268584, 746.0666666666667, N
268838, 746.7722222222222, N
269099, 747.4972222222223, N
269362, 748.2277777777778, N
269524, 748.6777777777778, V
269898, 749.7166666666667, N
270176, 750.4888888888889, N
270439, 751.2194444444444, N
270698, 751.9388888888889, N
270947, 752.6305555555556, N
271199, 753.3305555555555, N
271456, 754.0444444444445, N
271728, 754.8, N
272001, 755.5583333333333, N
272267, 756.2972222222222, N
272528, 757.0222222222222, N
272789, 757.7472222222223, N
273048, 758.4666666666667, N
273304, 759.1777777777778, N
273558, 759.8833333333333, N
273821, 760.6138888888889, N
274092, 761.3666666666667, N
274369, 762.1361111111111, N
274638, 762.8833333333333, N
274894, 763.5944444444444, N
274936, 763.7111111111111, ~
275145, 764.2916666666666, N
275397, 764.9916666666667, N
275661, 765.725, N
275922, 766.45, N
276186, 767.1833333333333, N
276453, 767.925, N
276721, 768.6694444444445, N
276980, 769.3888888888889, N
277232, 770.0888888888888, N
277485, 770.7916666666666, N
277741, 771.5027777777777, N
277816, 771.7111111111111, ~
277995, 772.2083333333334, N
278270, 772.9722222222222, N
278543, 773.7305555555556, N
278813, 774.4805555555556, N
279072, 775.2, N
279327, 775.9083333333333, N
279576, 776.6, N
279832, 777.3111111111111, N
280099, 778.0527777777778, N
280363, 778.7861111111112, N
280624, 779.5111111111111, N
280895, 780.2638888888889, N
281166, 781.0166666666667, N
281419, 781.7194444444444, N
281662, 782.3944444444444, N
281913, 783.0916666666667, N
282166, 783.7944444444445, N
282430, 784.5277777777778, N
282703, 785.2861111111112, N
282967, 786.0194444444444, N
283230, 786.75, N
283487, 787.4638888888888, N
283746, 788.1833333333333, N
283993, 788.8694444444444, N
284243, 789.5638888888889, N
284500, 790.2777777777778, N
284766, 791.0166666666667, N
285030, 791.75, N
285297, 792.4916666666667, N
285556, 793.2111111111111, N
285807, 793.9083333333333, N
286053, 794.5916666666667, N
286306, 795.2944444444445, N
286561, 796.0027777777777, N
286826, 796.7388888888889, N
287088, 797.4666666666667, N
287351, 798.1972222222222, N
287611, 798.9194444444445, N
287869, 799.6361111111111, N
288122, 800.3388888888888, N
288368, 801.0222222222222, N
288619, 801.7194444444444, N
288874, 802.4277777777778, N
289146, 803.1833333333333, N
289415, 803.9305555555555, N
289678, 804.6611111111112, N
289928, 805.3555555555556, N
290180, 806.0555555555555, N
290428, 806.7444444444444, N
290682, 807.45, N
290943, 808.175, N
291208, 808.9111111111112, N
291470, 809.6388888888889, N
291741, 810.3916666666667, N
292008, 811.1333333333333, N
292262, 811.8388888888888, N
292505, 812.5138888888889, N
292755, 813.2083333333334, N
293010, 813.9166666666666, N
293273, 814.6472222222222, N
293546, 815.4055555555556, N
293811, 816.1416666666667, N
294069, 816.8583333333333, N
294324, 817.5666666666667, N
294583, 818.2861111111112, N
294830, 818.9722222222222, N
295079, 819.6638888888889, N
295337, 820.3805555555556, N
295603, 821.1194444444444, N
295865, 821.8472222222222, N
296132, 822.5888888888888, N
296391, 823.3083333333333, N
296540, 823.7222222222222, V
296884, 824.6777777777778, N
297141, 825.3916666666667, N
297399, 826.1083333333333, N
297662, 826.8388888888888, N
297923, 827.5638888888889, N
298184, 828.2888888888889, N
298441, 829.0027777777777, N
298698, 829.7166666666667, N
298951, 830.4194444444445, N
299197, 831.1027777777778, N
299445, 831.7916666666666, N
299704, 832.5111111111111, N
299977, 833.2694444444444, N
300242, 834.0055555555556, N
300504, 834.7333333333333, N
300755, 835.4305555555555, N
301006, 836.1277777777777, N
301255, 836.8194444444445, N
301511, 837.5305555555556, N
301767, 838.2416666666667, N
302032, 838.9777777777778, N
302295, 839.7083333333334, N
302560, 840.4444444444445, N
302821, 841.1694444444445, N
303073, 841.8694444444444, N
303314, 842.5388888888889, N
303561, 843.225, N
303812, 843.9222222222222, N
304076, 844.6555555555556, N
304344, 845.4, N
304606, 846.1277777777777, N
304863, 846.8416666666667, N
305113, 847.5361111111112, N
305213, 847.8138888888889, ~
305365, 848.2361111111111, N
305610, 848.9166666666666, N
305855, 849.5972222222222, N
306104, 850.2888888888889, N
306367, 851.0194444444444, N
306626, 851.7388888888889, N
306887, 852.4638888888888, N
307144, 853.1777777777778, N
307391, 853.8638888888889, N
307628, 854.5222222222222, N
307748, 854.8555555555556, ~
307875, 855.2083333333334, N
308132, 855.9222222222222, N
308391, 856.6416666666667, N
308647, 857.3527777777778, N
308905, 858.0694444444445, N
309165, 858.7916666666666, N
309415, 859.4861111111111, N
309664, 860.1777777777778, N
309909, 860.8583333333333, N
310151, 861.5305555555556, N
310400, 862.2222222222222, N
310667, 862.9638888888888, N
310931, 863.6972222222222, N
311191, 864.4194444444445, N
311441, 865.1138888888889, N
311582, 865.5055555555556, V
311927, 866.4638888888888, N
312177, 867.1583333333333, N
312430, 867.8611111111111, N
312680, 868.5555555555555, N
312936, 869.2666666666667, N
313195, 869.9861111111111, N
313458, 870.7166666666667, N
313702, 871.3944444444444, N
313878, 871.8833333333333, ~
313943, 872.0638888888889, N
314180, 872.7222222222222, N
314406, 873.35, N
314659, 874.0527777777778, N
314911, 874.7527777777777, N
315173, 875.4805555555556, N
315337, 875.9361111111111, ~
315417, 876.1583333333333, N
315505, 876.4027777777778, ~
315665, 876.8472222222222, N
315907, 877.5194444444444, N
316146, 878.1833333333333, N
316385, 878.8472222222222, N
316625, 879.5138888888889, N
316868, 880.1888888888889, N
317120, 880.8888888888889, N
317375, 881.5972222222222, N
317634, 882.3166666666667, N
317891, 883.0305555555556, N
318134, 883.7055555555555, N
318375, 884.375, N
318616, 885.0444444444445, N
318869, 885.7472222222223, N
319121, 886.4472222222222, N
319376, 887.1555555555556, N
319630, 887.8611111111111, N
319891, 888.5861111111111, N
320143, 889.2861111111112, N
320388, 889.9666666666667, N
320633, 890.6472222222222, N
320880, 891.3333333333334, N
321125, 892.0138888888889, N
321384, 892.7333333333333, N
321652, 893.4777777777778, N
321913, 894.2027777777778, N
322162, 894.8944444444444, N
322411, 895.5861111111111, N
322658, 896.2722222222222, N
322904, 896.9555555555555, N
323154, 897.65, N
323406, 898.35, N
323668, 899.0777777777778, N
323929, 899.8027777777778, N
324194, 900.5388888888889, N
324453, 901.2583333333333, N
324702, 901.95, N
324820, 902.2777777777778, |
324945, 902.625, N
325196, 903.3222222222222, N
325444, 904.0111111111111, N
325708, 904.7444444444444, N
325981, 905.5027777777777, N
326241, 906.225, N
326496, 906.9333333333333, N
326751, 907.6416666666667, N
327009, 908.3583333333333, N
327257, 909.0472222222222, N
327509, 909.7472222222223, N
327766, 910.4611111111111, N
328035, 911.2083333333334, N
328303, 911.9527777777778, N
328571, 912.6972222222222, N
328829, 913.4138888888889, N
329079, 914.1083333333333, N
329330, 914.8055555555555, N
329589, 915.525, N
329852, 916.2555555555556, N
330120, 917.0, N
330387, 917.7416666666667, N
330652, 918.4777777777778, N
330912, 919.2, N
331169, 919.9138888888889, N
331422, 920.6166666666667, N
331673, 921.3138888888889, N
331928, 922.0222222222222, N
332194, 922.7611111111111, N
332470, 923.5277777777778, N
332740, 924.2777777777778, N
332998, 924.9944444444444, N
333249, 925.6916666666667, N
333501, 926.3916666666667, N
333757, 927.1027777777778, N
334013, 927.8138888888889, N
334274, 928.5388888888889, N
334542, 929.2833333333333, N
334807, 930.0194444444444, N
335079, 930.775, N
335338, 931.4944444444444, N
335588, 932.1888888888889, N
335836, 932.8777777777777, N
336092, 933.5888888888888, N
336350, 934.3055555555555, N
336621, 935.0583333333333, N
336895, 935.8194444444445, N
337162, 936.5611111111111, N
337417, 937.2694444444444, N
337675, 937.9861111111111, N
337931, 938.6972222222222, N
338184, 939.4, N
338437, 940.1027777777778, N
338703, 940.8416666666667, N
338969, 941.5805555555555, N
339240, 942.3333333333334, N
339510, 943.0833333333334, N
339763, 943.7861111111112, N
340009, 944.4694444444444, N
340266, 945.1833333333333, N
340530, 945.9166666666666, N
340793, 946.6472222222222, N
341059, 947.3861111111111, N
341331, 948.1416666666667, N
341594, 948.8722222222223, N
341855, 949.5972222222222, N
342114, 950.3166666666667, N
342363, 951.0083333333333, N
342617, 951.7138888888888, N
342879, 952.4416666666667, N
343155, 953.2083333333334, N
343419, 953.9416666666667, N
343688, 954.6888888888889, N
343947, 955.4083333333333, N
344201, 956.1138888888889, N
344454, 956.8166666666667, N
344715, 957.5416666666666, N
344979, 958.275, N
345246, 959.0166666666667, N
345516, 959.7666666666667, N
345792, 960.5333333333333, N
346059, 961.275, N
346319, 961.9972222222223, N
346568, 962.6888888888889, N
346825, 963.4027777777778, N
347086, 964.1277777777777, N
347363, 964.8972222222222, N
347638, 965.6611111111112, N
347911, 966.4194444444445, N
348173, 967.1472222222222, N
348437, 967.8805555555556, N
348698, 968.6055555555556, N
348956, 969.3222222222222, N
349211, 970.0305555555556, N
349477, 970.7694444444444, N
349749, 971.525, N
350019, 972.275, N
350286, 973.0166666666667, N
350542, 973.7277777777778, N
350792, 974.4222222222222, N
351048, 975.1333333333333, N
351315, 975.875, N
351583, 976.6194444444444, N
351847, 977.3527777777778, N
351991, 977.7527777777777, ~
352119, 978.1083333333333, N
352387, 978.8527777777778, N
352649, 979.5805555555555, N
352911, 980.3083333333333, N
353166, 981.0166666666667, N
353423, 981.7305555555556, N
353688, 982.4666666666667, N
353970, 983.25, N
354237, 983.9916666666667, N
354501, 984.725, N
354763, 985.4527777777778, N
355019, 986.1638888888889, N
355277, 986.8805555555556, N
355543, 987.6194444444444, N
355812, 988.3666666666667, N
356084, 989.1222222222223, N
356359, 989.8861111111111, N
356644, 990.6777777777778, N
356908, 991.4111111111112, N
357167, 992.1305555555556, N
357423, 992.8416666666667, N
357684, 993.5666666666667, N
357951, 994.3083333333333, N
358226, 995.0722222222222, N
358494, 995.8166666666667, N
358763, 996.5638888888889, N
359023, 997.2861111111112, N
359156, 997.6555555555556, |
359284, 998.0111111111111, N
359501, 998.6138888888889, |
359537, 998.7138888888888, N
359794, 999.4277777777778, N
360055, 1000.1527777777778, N
360324, 1000.9, N
360595, 1001.6527777777778, N
360867, 1002.4083333333333, N
361132, 1003.1444444444444, N
361387, 1003.8527777777778, N
361634, 1004.5388888888889, N
361892, 1005.2555555555556, N
362154, 1005.9833333333333, N
362424, 1006.7333333333333, N
362689, 1007.4694444444444, N
362956, 1008.2111111111111, N
363163, 1008.7861111111112, |
363220, 1008.9444444444445, N
363479, 1009.6638888888889, N
363734, 1010.3722222222223, N
363984, 1011.0666666666667, N
364047, 1011.2416666666667, ~
364238, 1011.7722222222222, N
364497, 1012.4916666666667, N
364777, 1013.2694444444444, N
365046, 1014.0166666666667, N
365308, 1014.7444444444444, N
365563, 1015.4527777777778, N
365699, 1015.8305555555555, ~
365817, 1016.1583333333333, N
366067, 1016.8527777777778, N
366273, 1017.425, |
366321, 1017.5583333333333, N
366580, 1018.2777777777778, N
366843, 1019.0083333333333, N
367105, 1019.7361111111111, N
367375, 1020.4861111111111, N
367638, 1021.2166666666667, N
367888, 1021.9111111111112, N
368132, 1022.5888888888888, N
368382, 1023.2833333333333, N
368631, 1023.975, N
368895, 1024.7083333333333, N
369166, 1025.4611111111112, N
369426, 1026.1833333333334, N
369680, 1026.888888888889, N
369933, 1027.5916666666667, N
370186, 1028.2944444444445, N
370388, 1028.8555555555556, |
370429, 1028.9694444444444, N
370673, 1029.6472222222221, N
370778, 1029.9388888888889, |
370927, 1030.3527777777779, N
371085, 1030.7916666666667, |
371189, 1031.0805555555555, N
371374, 1031.5944444444444, V
371677, 1032.4361111111111, |
371709, 1032.525, N
371964, 1033.2333333333333, N
372064, 1033.5111111111112, ~
372207, 1033.9083333333333, N
372444, 1034.5666666666666, N
372690, 1035.25, N
372941, 1035.9472222222223, N
372992, 1036.088888888889, ~
373196, 1036.6555555555556, N
373449, 1037.3583333333333, N
373706, 1038.0722222222223, N
373959, 1038.775, N
374211, 1039.475, N
374458, 1040.161111111111, N
374699, 1040.8305555555555, N
374877, 1041.325, |
374944, 1041.5111111111112, N
375193, 1042.2027777777778, N
375455, 1042.9305555555557, N
375718, 1043.661111111111, N
375979, 1044.3861111111112, N
376046, 1044.5722222222223, |
376226, 1045.0722222222223, N
376469, 1045.7472222222223, N
376709, 1046.4138888888888, N
376956, 1047.1, N
377203, 1047.786111111111, N
377452, 1048.4777777777779, N
377709, 1049.1916666666666, N
377965, 1049.9027777777778, N
378227, 1050.6305555555555, N
378476, 1051.3222222222223, N
378718, 1051.9944444444445, N
378955, 1052.6527777777778, N
379198, 1053.3277777777778, N
379443, 1054.0083333333334, N
379700, 1054.7222222222222, N
379964, 1055.4555555555555, N
380220, 1056.1666666666667, N
380469, 1056.8583333333333, N
380714, 1057.5388888888888, N
380963, 1058.2305555555556, N
381203, 1058.8972222222221, N
381441, 1059.5583333333334, N
381689, 1060.2472222222223, N
381947, 1060.963888888889, N
382200, 1061.6666666666667, N
382458, 1062.3833333333334, N
382711, 1063.0861111111112, N
382954, 1063.7611111111112, N
383055, 1064.0416666666667, ~
383186, 1064.4055555555556, N
383254, 1064.5944444444444, ~
383428, 1065.0777777777778, N
383679, 1065.775, N
383929, 1066.4694444444444, N
384178, 1067.161111111111, N
384430, 1067.861111111111, N
384625, 1068.4027777777778, |
384684, 1068.5666666666666, N
384795, 1068.875, |
384927, 1069.2416666666666, N
385169, 1069.9138888888888, N
385408, 1070.5777777777778, N
385535, 1070.9305555555557, ~
385643, 1071.2305555555556, N
385878, 1071.8833333333334, N
386132, 1072.588888888889, N
386395, 1073.3194444444443, N
386438, 1073.4388888888889, ~
386647, 1074.0194444444444, N
386892, 1074.7, N
387136, 1075.3777777777777, N
387378, 1076.05, N
387615, 1076.7083333333333, N
387781, 1077.1694444444445, |
387859, 1077.3861111111112, N
388051, 1077.9194444444445, |
388103, 1078.0638888888889, N
388355, 1078.763888888889, N
388607, 1079.463888888889, N
388864, 1080.1777777777777, N
389120, 1080.888888888889, N
389365, 1081.5694444444443, N
389599, 1082.2194444444444, N
389838, 1082.8833333333334, N
390081, 1083.5583333333334, N
390331, 1084.2527777777777, N
390589, 1084.9694444444444, N
390845, 1085.6805555555557, N
391103, 1086.3972222222221, N
391350, 1087.0833333333333, N
391594, 1087.7611111111112, N
391841, 1088.4472222222223, N
392085, 1089.125, N
392324, 1089.7888888888888, N
392570, 1090.4722222222222, N
392830, 1091.1944444444443, N
393092, 1091.9222222222222, N
393349, 1092.6361111111112, N
393594, 1093.3166666666666, N
393839, 1093.9972222222223, N
394077, 1094.6583333333333, N
394324, 1095.3444444444444, N
394574, 1096.0388888888888, N
394831, 1096.7527777777777, N
395082, 1097.45, N
395338, 1098.161111111111, N
395590, 1098.861111111111, N
395839, 1099.5527777777777, N
396085, 1100.236111111111, N
396325, 1100.9027777777778, N
396567, 1101.575, N
396817, 1102.2694444444444, N
397083, 1103.0083333333334, N
397342, 1103.7277777777779, N
397597, 1104.4361111111111, N
397774, 1104.9277777777777, ~
397848, 1105.1333333333334, N
398094, 1105.8166666666666, N
398333, 1106.4805555555556, N
398476, 1106.8777777777777, |
398581, 1107.1694444444445, N
398606, 1107.2388888888888, |
398834, 1107.8722222222223, N
398994, 1108.3166666666666, ~
399087, 1108.575, N
399341, 1109.2805555555556, N
399391, 1109.4194444444445, ~
399604, 1110.0111111111112, N
399870, 1110.75, N
400119, 1111.4416666666666, N
400361, 1112.1138888888888, N
400606, 1112.7944444444445, N
400854, 1113.4833333333333, N
401106, 1114.1833333333334, N
401371, 1114.9194444444445, N
401635, 1115.6527777777778, N
401894, 1116.3722222222223, N
402145, 1117.0694444444443, N
402399, 1117.775, N
402648, 1118.4666666666667, N
402897, 1119.1583333333333, N
403143, 1119.8416666666667, N
403399, 1120.5527777777777, N
403663, 1121.286111111111, N
403932, 1122.0333333333333, N
404200, 1122.7777777777778, N
404448, 1123.4666666666667, N
404692, 1124.1444444444444, N
404938, 1124.8277777777778, N
405021, 1125.0583333333334, ~
405195, 1125.5416666666667, N
405447, 1126.2416666666666, N
405708, 1126.9666666666667, N
405873, 1127.425, |
405967, 1127.6861111111111, N
406229, 1128.4138888888888, N
406481, 1129.1138888888888, N
406731, 1129.8083333333334, N
406979, 1130.4972222222223, N
407036, 1130.6555555555556, ~
407225, 1131.1805555555557, N
407472, 1131.8666666666666, N
407731, 1132.5861111111112, N
408002, 1133.338888888889, N
408266, 1134.0722222222223, N
408359, 1134.3305555555555, |
408515, 1134.763888888889, N
408763, 1135.4527777777778, N
409008, 1136.1333333333334, N
409250, 1136.8055555555557, N
409497, 1137.4916666666666, N
409743, 1138.175, N
410001, 1138.8916666666667, N
410256, 1139.6, N
410517, 1140.325, N
410780, 1141.0555555555557, N
411026, 1141.7388888888888, N
411263, 1142.3972222222221, N
411506, 1143.0722222222223, N
411751, 1143.7527777777777, N
412009, 1144.4694444444444, N
412275, 1145.2083333333333, N
412532, 1145.9222222222222, N
412785, 1146.625, N
413034, 1147.3166666666666, N
413102, 1147.5055555555555, |
413282, 1148.0055555555555, N
413370, 1148.25, ~
413524, 1148.6777777777777, N
413767, 1149.3527777777779, N
413921, 1149.7805555555556, ~
414014, 1150.0388888888888, N
414272, 1150.7555555555555, N
414531, 1151.475, N
414796, 1152.2111111111112, N
415058, 1152.9388888888889, N
415306, 1153.6277777777777, N
415547, 1154.2972222222222, N
415799, 1154.9972222222223, N
416056, 1155.7111111111112, N
416309, 1156.4138888888888, N
416568, 1157.1333333333334, N
416834, 1157.8722222222223, N
417094, 1158.5944444444444, N
417352, 1159.3111111111111, N
417603, 1160.0083333333334, N
417701, 1160.2805555555556, ~
417850, 1160.6944444444443, N
418097, 1161.3805555555555, N
418350, 1162.0833333333333, N
418616, 1162.8222222222223, N
418879, 1163.5527777777777, N
419143, 1164.286111111111, N
419396, 1164.9888888888888, N
419642, 1165.6722222222222, N
419882, 1166.338888888889, N
420132, 1167.0333333333333, N
420191, 1167.1972222222223, ~
420383, 1167.7305555555556, N
420633, 1168.425, N
420889, 1169.1361111111112, N
421151, 1169.8638888888888, N
421417, 1170.6027777777779, N
421669, 1171.3027777777777, N
421913, 1171.9805555555556, N
422156, 1172.6555555555556, N
422403, 1173.3416666666667, N
422654, 1174.0388888888888, N
422914, 1174.7611111111112, N
423176, 1175.4888888888888, N
423435, 1176.2083333333333, N
423688, 1176.911111111111, N
423939, 1177.6083333333333, N
424189, 1178.3027777777777, N
424435, 1178.986111111111, N
424673, 1179.6472222222221, N
424924, 1180.3444444444444, N
425182, 1181.0611111111111, N
425444, 1181.7888888888888, N
425703, 1182.5083333333334, N
425951, 1183.1972222222223, N
426195, 1183.875, N
426333, 1184.2583333333334, ~
426432, 1184.5333333333333, N
426679, 1185.2194444444444, N
426927, 1185.9083333333333, N
427075, 1186.3194444444443, V
427429, 1187.3027777777777, N
427689, 1188.025, N
427938, 1188.7166666666667, N
428183, 1189.3972222222221, N
428428, 1190.0777777777778, N
428666, 1190.7388888888888, N
428903, 1191.3972222222221, N
429144, 1192.0666666666666, N
429403, 1192.786111111111, N
429547, 1193.1861111111111, ~
429656, 1193.4888888888888, N
429909, 1194.1916666666666, N
430157, 1194.8805555555555, N
430396, 1195.5444444444445, N
430628, 1196.1888888888889, N
430866, 1196.85, N
431110, 1197.5277777777778, N
431348, 1198.1888888888889, N
431594, 1198.8722222222223, N
431843, 1199.5638888888889, N
432098, 1200.2722222222221, N
432341, 1200.9472222222223, N
432577, 1201.6027777777779, N
432803, 1202.2305555555556, N
433031, 1202.8638888888888, N
433262, 1203.5055555555555, N
433506, 1204.1833333333334, N
433555, 1204.3194444444443, ~
433976, 1205.4888888888888, ~
434000, 1205.5555555555557, N
434247, 1206.2416666666666, N
434389, 1206.6361111111112, V
434712, 1207.5333333333333, N
434961, 1208.225, N
435189, 1208.8583333333333, N
435414, 1209.4833333333333, N
435671, 1210.1972222222223, N
435895, 1210.8194444444443, N
436140, 1211.5, N
436387, 1212.1861111111111, N
436631, 1212.8638888888888, N
436864, 1213.5111111111112, N
437093, 1214.1472222222221, N
437328, 1214.8, N
437547, 1215.4083333333333, N
437803, 1216.1194444444445, N
438047, 1216.7972222222222, N
438289, 1217.4694444444444, N
438537, 1218.1583333333333, N
438778, 1218.8277777777778, N
439032, 1219.5333333333333, N
439248, 1220.1333333333334, N
439474, 1220.7611111111112, N
439703, 1221.3972222222221, N
439929, 1222.025, N
440174, 1222.7055555555555, N
440418, 1223.3833333333334, N
440662, 1224.0611111111111, N
440893, 1224.7027777777778, N
441123, 1225.3416666666667, N
441344, 1225.9555555555555, N
441583, 1226.6194444444445, N
441811, 1227.2527777777777, N
442046, 1227.9055555555556, N
442280, 1228.5555555555557, N
442520, 1229.2222222222222, N
442766, 1229.9055555555556, N
443016, 1230.6, N
443253, 1231.2583333333334, N
443480, 1231.888888888889, N
443710, 1232.5277777777778, N
443941, 1233.1694444444445, N
444182, 1233.838888888889, Q
444412, 1234.4777777777779, N
444663, 1235.175, N
444906, 1235.85, N
445146, 1236.5166666666667, N
445383, 1237.175, Q
445624, 1237.8444444444444, N
445853, 1238.4805555555556, N
446083, 1239.1194444444445, N
446314, 1239.7611111111112, N
446554, 1240.4277777777777, N
446794, 1241.0944444444444, N
447043, 1241.786111111111, N
447293, 1242.4805555555556, N
447528, 1243.1333333333334, N
447759, 1243.775, N
447929, 1244.2472222222223, Q
448218, 1245.05, N
448455, 1245.7083333333333, N
448693, 1246.3694444444445, N
448931, 1247.0305555555556, N
449173, 1247.7027777777778, N
449413, 1248.3694444444445, N
449651, 1249.0305555555556, N
449886, 1249.6833333333334, N
450112, 1250.3111111111111, N
450337, 1250.9361111111111, N
450564, 1251.5666666666666, N
450801, 1252.225, N
450945, 1252.625, ~
451046, 1252.9055555555556, N
451291, 1253.5861111111112, N
451533, 1254.2583333333334, N
451766, 1254.9055555555556, N
451997, 1255.5472222222222, N
452224, 1256.1777777777777, N
452454, 1256.8166666666666, N
452687, 1257.463888888889, N
452919, 1258.1083333333333, N
453162, 1258.7833333333333, N
453404, 1259.4555555555555, N
453472, 1259.6444444444444, ~
453654, 1260.15, N
453897, 1260.825, N
454134, 1261.4833333333333, N
454358, 1262.1055555555556, N
454585, 1262.736111111111, N
454815, 1263.375, N
454933, 1263.7027777777778, ~
455055, 1264.0416666666667, N
455299, 1264.7194444444444, N
455544, 1265.4, N
455790, 1266.0833333333333, N
456025, 1266.736111111111, N
456262, 1267.3944444444444, N
456498, 1268.05, N
456672, 1268.5333333333333, V
456815, 1268.9305555555557, ~
456951, 1269.3083333333334, N
457186, 1269.9611111111112, N
457427, 1270.6305555555555, N
457668, 1271.3, N
457830, 1271.75, ~
457913, 1271.9805555555556, N
458159, 1272.6638888888888, N
458392, 1273.3111111111111, N
458616, 1273.9333333333334, N
458840, 1274.5555555555557, N
459076, 1275.2111111111112, N
459307, 1275.8527777777779, N
459542, 1276.5055555555555, N
459780, 1277.1666666666667, N
460020, 1277.8333333333333, N
460255, 1278.486111111111, N
460491, 1279.1416666666667, N
460722, 1279.7833333333333, N
460945, 1280.4027777777778, N
461166, 1281.0166666666667, N
461388, 1281.6333333333334, N
461626, 1282.2944444444445, N
461872, 1282.9777777777779, N
462109, 1283.6361111111112, N
462342, 1284.2833333333333, N
462577, 1284.9361111111111, N
462806, 1285.5722222222223, N
462854, 1285.7055555555555, ~
463028, 1286.1888888888889, N
463254, 1286.8166666666666, N
463486, 1287.4611111111112, N
463635, 1287.875, V
463950, 1288.75, N
464194, 1289.4277777777777, N
464440, 1290.111111111111, N
464520, 1290.3333333333333, ~
464673, 1290.7583333333334, N
464906, 1291.4055555555556, N
465128, 1292.0222222222221, N
465350, 1292.638888888889, N
465573, 1293.2583333333334, N
465807, 1293.9083333333333, N
465991, 1294.4194444444445, |
466046, 1294.5722222222223, N
466285, 1295.236111111111, N
466388, 1295.5222222222221, ~
466528, 1295.911111111111, N
466762, 1296.5611111111111, N
466998, 1297.2166666666667, N
467230, 1297.861111111111, N
467456, 1298.4888888888888, N
467679, 1299.1083333333333, N
467905, 1299.736111111111, N
468138, 1300.3833333333334, N
468377, 1301.0472222222222, N
468622, 1301.7277777777779, N
468866, 1302.4055555555556, N
469101, 1303.0583333333334, N
469327, 1303.6861111111111, N
469553, 1304.3138888888889, N
469781, 1304.9472222222223, N
470013, 1305.5916666666667, N
470248, 1306.2444444444445, N
470481, 1306.8916666666667, N
470721, 1307.5583333333334, N
470963, 1308.2305555555556, N
471204, 1308.9, N
471437, 1309.5472222222222, N
471665, 1310.1805555555557, N
471893, 1310.8138888888889, Q
472116, 1311.4333333333334, N
472351, 1312.0861111111112, N
472412, 1312.2555555555555, ~
472828, 1313.411111111111, ~
472866, 1313.5166666666667, N
473079, 1314.1083333333333, N
473319, 1314.775, N
473556, 1315.4333333333334, N
473781, 1316.0583333333334, N
474005, 1316.6805555555557, N
474242, 1317.338888888889, N
474474, 1317.9833333333333, N
474711, 1318.6416666666667, N
474956, 1319.3222222222223, N
475205, 1320.013888888889, N
475447, 1320.6861111111111, N
475683, 1321.3416666666667, N
475907, 1321.963888888889, N
476122, 1322.5611111111111, N
476360, 1323.2222222222222, N
476592, 1323.8666666666666, N
476834, 1324.5388888888888, N
477075, 1325.2083333333333, N
477316, 1325.8777777777777, N
477550, 1326.5277777777778, N
477791, 1327.1972222222223, N
478007, 1327.7972222222222, N
478252, 1328.4777777777779, N
478477, 1329.1027777777779, N
478528, 1329.2444444444445, ~
478919, 1330.3305555555555, ~
478948, 1330.411111111111, N
479189, 1331.0805555555555, N
479437, 1331.7694444444444, N
479686, 1332.4611111111112, N
479918, 1333.1055555555556, N
480147, 1333.7416666666666, N
480379, 1334.3861111111112, N
480617, 1335.0472222222222, N
480848, 1335.6888888888889, N
481091, 1336.3638888888888, N
481334, 1337.0388888888888, N
481578, 1337.7166666666667, N
481822, 1338.3944444444444, N
482066, 1339.0722222222223, N
482302, 1339.7277777777779, N
482530, 1340.361111111111, N
482762, 1341.0055555555555, N
482993, 1341.6472222222221, N
483237, 1342.325, N
483486, 1343.0166666666667, N
483737, 1343.713888888889, N
483979, 1344.3861111111112, N
484216, 1345.0444444444445, N
484451, 1345.6972222222223, N
484684, 1346.3444444444444, N
484916, 1346.9888888888888, N
485148, 1347.6333333333334, N
485390, 1348.3055555555557, N
485627, 1348.963888888889, N
485874, 1349.65, N
486123, 1350.3416666666667, N
486364, 1351.0111111111112, N
486589, 1351.6361111111112, N
486665, 1351.8472222222222, ~
486816, 1352.2666666666667, N
487046, 1352.9055555555556, N
487274, 1353.5388888888888, N
487509, 1354.1916666666666, N
487755, 1354.875, N
487997, 1355.5472222222222, N
488141, 1355.9472222222223, V
488470, 1356.861111111111, N
488713, 1357.536111111111, N
488940, 1358.1666666666667, N
489074, 1358.5388888888888, ~
489166, 1358.7944444444445, N
489389, 1359.4138888888888, N
489621, 1360.0583333333334, N
489859, 1360.7194444444444, N
490104, 1361.4, N
490254, 1361.8166666666666, V
490592, 1362.7555555555555, N
490827, 1363.4083333333333, N
491051, 1364.0305555555556, N
491284, 1364.6777777777777, N
491514, 1365.3166666666666, N
491744, 1365.9555555555555, N
491977, 1366.6027777777779, N
492220, 1367.2777777777778, N
492462, 1367.95, N
492701, 1368.6138888888888, N
492938, 1369.2722222222221, N
493168, 1369.911111111111, N
493393, 1370.536111111111, N
493616, 1371.1555555555556, N
493850, 1371.8055555555557, N
494093, 1372.4805555555556, N
494333, 1373.1472222222221, N
494576, 1373.8222222222223, N
494817, 1374.4916666666666, N
495052, 1375.1444444444444, N
495278, 1375.7722222222221, N
495510, 1376.4166666666667, N
495561, 1376.5583333333334, |
495743, 1377.0638888888889, N
495972, 1377.7, N
496209, 1378.3583333333333, N
496451, 1379.0305555555556, N
496701, 1379.725, N
496946, 1380.4055555555556, N
497186, 1381.0722222222223, N
497413, 1381.7027777777778, N
497637, 1382.325, N
497865, 1382.9583333333333, N
498099, 1383.6083333333333, N
498339, 1384.275, N
498580, 1384.9444444444443, N
498823, 1385.6194444444445, N
499061, 1386.2805555555556, N
499304, 1386.9555555555555, N
499541, 1387.6138888888888, N
499771, 1388.2527777777777, N
499994, 1388.8722222222223, N
500221, 1389.5027777777777, N
500458, 1390.161111111111, N
500698, 1390.8277777777778, N
500943, 1391.5083333333334, N
501187, 1392.1861111111111, N
501424, 1392.8444444444444, N
501654, 1393.4833333333333, N
501881, 1394.1138888888888, N
502115, 1394.763888888889, N
502344, 1395.4, N
502578, 1396.05, N
502814, 1396.7055555555555, N
503057, 1397.3805555555555, N
503299, 1398.0527777777777, N
503539, 1398.7194444444444, N
503777, 1399.3805555555555, N
504004, 1400.0111111111112, N
504231, 1400.6416666666667, N
504454, 1401.2611111111112, N
504689, 1401.9138888888888, N
504933, 1402.5916666666667, N
505177, 1403.2694444444444, N
505411, 1403.9194444444445, N
505650, 1404.5833333333333, N
505887, 1405.2416666666666, N
506112, 1405.8666666666666, N
506340, 1406.5, N
506573, 1407.1472222222221, N
506802, 1407.7833333333333, N
507032, 1408.4222222222222, N
507275, 1409.0972222222222, N
507525, 1409.7916666666667, N
507762, 1410.45, N
507996, 1411.1, N
508222, 1411.7277777777779, N
508448, 1412.3555555555556, N
508671, 1412.975, N
508903, 1413.6194444444445, N
509141, 1414.2805555555556, N
509378, 1414.9388888888889, N
509617, 1415.6027777777779, N
509856, 1416.2666666666667, N
510097, 1416.9361111111111, N
510329, 1417.5805555555555, N
510556, 1418.2111111111112, N
510776, 1418.8222222222223, N
511004, 1419.4555555555555, N
511237, 1420.1027777777779, N
511474, 1420.7611111111112, N
511718, 1421.4388888888889, N
511961, 1422.1138888888888, N
512196, 1422.7666666666667, N
512424, 1423.4, N
512651, 1424.0305555555556, N
512882, 1424.6722222222222, N
513107, 1425.2972222222222, N
513339, 1425.9416666666666, N
513572, 1426.588888888889, N
513812, 1427.2555555555555, N
514051, 1427.9194444444445, N
514294, 1428.5944444444444, N
514531, 1429.2527777777777, N
514636, 1429.5444444444445, ~
514756, 1429.8777777777777, N
514982, 1430.5055555555555, N
515205, 1431.125, N
515435, 1431.763888888889, N
515677, 1432.4361111111111, N
515841, 1432.8916666666667, ~
515917, 1433.1027777777779, N
516150, 1433.75, N
516386, 1434.4055555555556, N
516622, 1435.0611111111111, N
516847, 1435.6861111111111, N
517077, 1436.325, N
517308, 1436.9666666666667, N
517534, 1437.5944444444444, N
517767, 1438.2416666666666, N
518008, 1438.911111111111, N
518261, 1439.6138888888888, N
518506, 1440.2944444444445, N
518745, 1440.9583333333333, N
518972, 1441.588888888889, N
519199, 1442.2194444444444, N
519427, 1442.8527777777779, N
519659, 1443.4972222222223, N
519898, 1444.161111111111, N
520137, 1444.825, N
520379, 1445.4972222222223, N
520617, 1446.1583333333333, N
520860, 1446.8333333333333, N
521097, 1447.4916666666666, N
521324, 1448.1222222222223, N
521543, 1448.7305555555556, N
521773, 1449.3694444444445, N
522009, 1450.025, N
522246, 1450.6833333333334, N
522490, 1451.361111111111, N
522741, 1452.0583333333334, N
522980, 1452.7222222222222, N
523209, 1453.3583333333333, N
523441, 1454.0027777777777, N
523678, 1454.661111111111, N
523907, 1455.2972222222222, N
524141, 1455.9472222222223, N
524385, 1456.625, N
524632, 1457.3111111111111, N
524874, 1457.9833333333333, N
525122, 1458.6722222222222, N
525367, 1459.3527777777779, N
525597, 1459.9916666666666, N
525826, 1460.6277777777777, N
525964, 1461.0111111111112, V
526304, 1461.9555555555555, N
526552, 1462.6444444444444, N
526802, 1463.338888888889, N
527048, 1464.0222222222221, N
527291, 1464.6972222222223, N
527529, 1465.3583333333333, N
527768, 1466.0222222222221, N
528009, 1466.6916666666666, N
528243, 1467.3416666666667, N
528481, 1468.0027777777777, N
528728, 1468.6888888888889, N
528986, 1469.4055555555556, N
529236, 1470.1, N
529485, 1470.7916666666667, N
529722, 1471.45, N
529958, 1472.1055555555556, N
530192, 1472.7555555555555, N
530434, 1473.4277777777777, N
530682, 1474.1166666666666, N
530929, 1474.8027777777777, N
531180, 1475.5, N
531430, 1476.1944444444443, N
531682, 1476.8944444444444, N
531923, 1477.5638888888889, N
532162, 1478.2277777777779, N
532394, 1478.8722222222223, N
532633, 1479.536111111111, N
532874, 1480.2055555555555, N
533128, 1480.911111111111, N
533386, 1481.6277777777777, N
533636, 1482.3222222222223, N
533881, 1483.0027777777777, N
534118, 1483.661111111111, N
534361, 1484.3361111111112, N
534599, 1484.9972222222223, N
534839, 1485.6638888888888, N
535080, 1486.3333333333333, N
535331, 1487.0305555555556, N
535581, 1487.725, N
535710, 1488.0833333333333, |
535834, 1488.4277777777777, N
536085, 1489.125, N
536323, 1489.786111111111, N
536556, 1490.4333333333334, N
536791, 1491.0861111111112, N
537041, 1491.7805555555556, N
537288, 1492.4666666666667, N
537539, 1493.1638888888888, N
537789, 1493.8583333333333, N
538040, 1494.5555555555557, N
538281, 1495.225, N
538520, 1495.888888888889, N
538762, 1496.5611111111111, N
538995, 1497.2083333333333, N
539231, 1497.8638888888888, N
539478, 1498.55, N
539739, 1499.275, N
539862, 1499.6166666666666, ~
539988, 1499.9666666666667, N
540110, 1500.3055555555557, ~
540234, 1500.65, N
540475, 1501.3194444444443, N
540710, 1501.9722222222222, N
540939, 1502.6083333333333, N
541176, 1503.2666666666667, N
541422, 1503.95, N
541664, 1504.6222222222223, N
541912, 1505.3111111111111, N
541978, 1505.4944444444445, ~
542161, 1506.0027777777777, N
542415, 1506.7083333333333, N
542654, 1507.3722222222223, N
542718, 1507.55, ~
542893, 1508.036111111111, N
543125, 1508.6805555555557, N
543356, 1509.3222222222223, N
543594, 1509.9833333333333, N
543845, 1510.6805555555557, N
544102, 1511.3944444444444, N
544348, 1512.0777777777778, N
544595, 1512.763888888889, N
544834, 1513.4277777777777, N
545073, 1514.0916666666667, N
545310, 1514.75, N
545549, 1515.4138888888888, N
545787, 1516.075, N
546033, 1516.7583333333334, N
546285, 1517.4583333333333, N
546541, 1518.1694444444445, N
546791, 1518.8638888888888, N
547026, 1519.5166666666667, N
547262, 1520.1722222222222, N
547495, 1520.8194444444443, N
547735, 1521.486111111111, N
547979, 1522.1638888888888, N
548230, 1522.861111111111, N
548475, 1523.5416666666667, N
548723, 1524.2305555555556, N
548967, 1524.9083333333333, N
549209, 1525.5805555555555, N
549447, 1526.2416666666666, N
549680, 1526.888888888889, N
549917, 1527.5472222222222, N
550159, 1528.2194444444444, N
550413, 1528.925, N
550670, 1529.638888888889, N
550922, 1530.338888888889, N
551163, 1531.0083333333334, N
551402, 1531.6722222222222, N
551638, 1532.3277777777778, N
551877, 1532.9916666666666, N
552120, 1533.6666666666667, N
552366, 1534.35, N
552616, 1535.0444444444445, N
552864, 1535.7333333333333, N
553120, 1536.4444444444443, N
553369, 1537.1361111111112, N
553608, 1537.8, N
553838, 1538.4388888888889, N
554076, 1539.1, N
554315, 1539.763888888889, N
554564, 1540.4555555555555, N
554822, 1541.1722222222222, N
555073, 1541.8694444444445, N
555320, 1542.5555555555557, N
555561, 1543.225, N
555806, 1543.9055555555556, N
556045, 1544.5694444444443, N
556281, 1545.225, N
556517, 1545.8805555555555, N
556762, 1546.5611111111111, N
557012, 1547.2555555555555, N
557266, 1547.9611111111112, N
557518, 1548.661111111111, N
557757, 1549.325, N
557991, 1549.975, N
558224, 1550.6222222222223, N
558467, 1551.2972222222222, N
558710, 1551.9722222222222, N
558958, 1552.661111111111, N
559205, 1553.3472222222222, N
559454, 1554.0388888888888, N
559699, 1554.7194444444444, N
559943, 1555.3972222222221, N
560182, 1556.0611111111111, N
560412, 1556.7, N
560648, 1557.3555555555556, N
560886, 1558.0166666666667, N
561136, 1558.7111111111112, N
561392, 1559.4222222222222, N
561645, 1560.125, N
561888, 1560.8, N
562050, 1561.25, ~
562125, 1561.4583333333333, N
562360, 1562.111111111111, N
562597, 1562.7694444444444, N
562837, 1563.4361111111111, N
563077, 1564.1027777777779, N
563324, 1564.7888888888888, N
563572, 1565.4777777777779, N
563822, 1566.1722222222222, N
563953, 1566.536111111111, ~
564073, 1566.8694444444445, N
564313, 1567.536111111111, N
564540, 1568.1666666666667, N
564770, 1568.8055555555557, N
565009, 1569.4694444444444, N
565257, 1570.1583333333333, N
565509, 1570.8583333333333, N
565762, 1571.5611111111111, N
566018, 1572.2722222222221, N
566261, 1572.9472222222223, N
566508, 1573.6333333333334, N
566751, 1574.3083333333334, N
566990, 1574.9722222222222, N
567225, 1575.625, N
567473, 1576.3138888888889, N
567728, 1577.0222222222221, N
567986, 1577.7388888888888, N
568243, 1578.4527777777778, N
568490, 1579.138888888889, N
568645, 1579.5694444444443, V
568965, 1580.4583333333333, N
569215, 1581.1527777777778, N
569462, 1581.838888888889, N
569714, 1582.5388888888888, N
569969, 1583.2472222222223, N
570227, 1583.963888888889, N
570478, 1584.661111111111, N
570728, 1585.3555555555556, N
570974, 1586.0388888888888, N
571213, 1586.7027777777778, N
571449, 1587.3583333333333, N
571690, 1588.0277777777778, N
571951, 1588.7527777777777, N
572206, 1589.4611111111112, N
572460, 1590.1666666666667, N
572707, 1590.8527777777779, N
572951, 1591.5305555555556, N
573185, 1592.1805555555557, N
573428, 1592.8555555555556, N
573676, 1593.5444444444445, N
573919, 1594.2194444444444, N
574169, 1594.9138888888888, N
574428, 1595.6333333333334, N
574692, 1596.3666666666666, N
574940, 1597.0555555555557, N
575180, 1597.7222222222222, N
575421, 1598.3916666666667, N
575662, 1599.0611111111111, N
575905, 1599.736111111111, N
576161, 1600.4472222222223, N
576421, 1601.1694444444445, N
576678, 1601.8833333333334, N
576929, 1602.5805555555555, N
577182, 1603.2833333333333, N
577429, 1603.9694444444444, N
577670, 1604.638888888889, N
577906, 1605.2944444444445, N
578151, 1605.975, N
578406, 1606.6833333333334, N
578666, 1607.4055555555556, N
578925, 1608.125, N
579176, 1608.8222222222223, N
579425, 1609.513888888889, N
579661, 1610.1694444444445, N
579799, 1610.5527777777777, V
580150, 1611.5277777777778, N
580403, 1612.2305555555556, N
580655, 1612.9305555555557, N
580910, 1613.638888888889, N
581167, 1614.3527777777779, N
581421, 1615.0583333333334, N
581668, 1615.7444444444445, N
581909, 1616.4138888888888, N
582150, 1617.0833333333333, N
582390, 1617.75, N
582646, 1618.4611111111112, N
582750, 1618.75, ~
582906, 1619.1833333333334, N
583162, 1619.8944444444444, N
583413, 1620.5916666666667, N
583659, 1621.275, N
583823, 1621.7305555555556, ~
583899, 1621.9416666666666, N
584139, 1622.6083333333333, N
584384, 1623.2888888888888, N
584626, 1623.9611111111112, N
584874, 1624.65, N
585128, 1625.3555555555556, N
585392, 1626.088888888889, N
585641, 1626.7805555555556, N
585882, 1627.45, N
586118, 1628.1055555555556, N
586358, 1628.7722222222221, N
586594, 1629.4277777777777, N
586841, 1630.1138888888888, N
587101, 1630.8361111111112, N
587355, 1631.5416666666667, N
587604, 1632.2333333333333, N
587853, 1632.925, N
588103, 1633.6194444444445, N
588340, 1634.2777777777778, N
588577, 1634.9361111111111, N
588818, 1635.6055555555556, N
589067, 1636.2972222222222, N
589317, 1636.9916666666666, N
589578, 1637.7166666666667, N
589836, 1638.4333333333334, N
590082, 1639.1166666666666, N
590320, 1639.7777777777778, N
590562, 1640.45, N
590810, 1641.138888888889, N
591054, 1641.8166666666666, N
591303, 1642.5083333333334, N
591559, 1643.2194444444444, N
591815, 1643.9305555555557, N
592065, 1644.625, N
592316, 1645.3222222222223, N
592487, 1645.7972222222222, ~
592556, 1645.9888888888888, N
592792, 1646.6444444444444, N
593028, 1647.3, N
593277, 1647.9916666666666, N
593533, 1648.7027777777778, N
593784, 1649.4, N
594032, 1650.088888888889, N
594278, 1650.7722222222221, N
594524, 1651.4555555555555, N
594760, 1652.111111111111, N
594999, 1652.775, N
595042, 1652.8944444444444, ~
595428, 1653.9666666666667, ~
595482, 1654.1166666666666, Q
595730, 1654.8055555555557, N
595988, 1655.5222222222221, N
596246, 1656.2388888888888, N
596496, 1656.9333333333334, N
596730, 1657.5833333333333, N
596964, 1658.2333333333333, N
597205, 1658.9027777777778, N
597446, 1659.5722222222223, N
597693, 1660.2583333333334, N
597948, 1660.9666666666667, N
598115, 1661.4305555555557, ~
598204, 1661.6777777777777, N
598450, 1662.361111111111, N
598700, 1663.0555555555557, N
598946, 1663.7388888888888, N
599184, 1664.4, N
599416, 1665.0444444444445, N
599655, 1665.7083333333333, N
599902, 1666.3944444444444, N
600157, 1667.1027777777779, N
600410, 1667.8055555555557, N
600663, 1668.5083333333334, N
600909, 1669.1916666666666, N
601141, 1669.8361111111112, N
601383, 1670.5083333333334, N
601627, 1671.1861111111111, N
601870, 1671.861111111111, N
602112, 1672.5333333333333, N
602363, 1673.2305555555556, N
602616, 1673.9333333333334, N
602867, 1674.6305555555555, N
603113, 1675.3138888888889, N
603349, 1675.9694444444444, N
603584, 1676.6222222222223, N
603816, 1677.2666666666667, N
604064, 1677.9555555555555, N
604318, 1678.661111111111, N
604571, 1679.3638888888888, N
604818, 1680.05, N
605068, 1680.7444444444445, N
605151, 1680.975, |
605308, 1681.411111111111, N
605548, 1682.0777777777778, N
605791, 1682.7527777777777, N
606025, 1683.4027777777778, N
606099, 1683.6083333333333, ~
606265, 1684.0694444444443, N
606514, 1684.7611111111112, N
606769, 1685.4694444444444, N
607020, 1686.1666666666667, N
607271, 1686.8638888888888, N
607504, 1687.5111111111112, N
607738, 1688.161111111111, N
607967, 1688.7972222222222, N
608206, 1689.4611111111112, N
608448, 1690.1333333333334, N
608692, 1690.8111111111111, N
608858, 1691.2722222222221, V
609187, 1692.1861111111111, N
609438, 1692.8833333333334, N
609680, 1693.5555555555557, N
609915, 1694.2083333333333, N
610144, 1694.8444444444444, N
610377, 1695.4916666666666, N
610617, 1696.1583333333333, N
610863, 1696.8416666666667, N
611116, 1697.5444444444445, N
611361, 1698.225, N
611603, 1698.8972222222221, N
611834, 1699.5388888888888, N
611946, 1699.85, ~
612067, 1700.1861111111111, N
612305, 1700.8472222222222, N
612541, 1701.5027777777777, N
612652, 1701.8111111111111, ~
612772, 1702.1444444444444, N
613016, 1702.8222222222223, N
613266, 1703.5166666666667, N
613513, 1704.2027777777778, N
613757, 1704.8805555555555, N
613994, 1705.5388888888888, N
614226, 1706.1833333333334, N
614455, 1706.8194444444443, N
614691, 1707.475, N
614939, 1708.1638888888888, N
615184, 1708.8444444444444, N
615322, 1709.2277777777779, |
615429, 1709.525, N
615672, 1710.2, N
615916, 1710.8777777777777, N
616148, 1711.5222222222221, N
616379, 1712.1638888888888, N
616612, 1712.8111111111111, N
616844, 1713.4555555555555, N
617079, 1714.1083333333333, N
617196, 1714.4333333333334, ~
617320, 1714.7777777777778, N
617522, 1715.338888888889, V
617821, 1716.1694444444445, N
618060, 1716.8333333333333, N
618290, 1717.4722222222222, N
618520, 1718.111111111111, N
618742, 1718.7277777777779, N
618935, 1719.263888888889, ~
618976, 1719.3777777777777, N
619135, 1719.8194444444443, V
619463, 1720.7305555555556, N
619711, 1721.4194444444445, N
619834, 1721.7611111111112, ~
619955, 1722.0972222222222, N
620207, 1722.7972222222222, N
620449, 1723.4694444444444, N
620684, 1724.1222222222223, N
620915, 1724.763888888889, N
621153, 1725.425, N
621394, 1726.0944444444444, N
621648, 1726.8, N
621909, 1727.525, N
622159, 1728.2194444444444, N
622404, 1728.9, N
622645, 1729.5694444444443, N
622890, 1730.25, N
623127, 1730.9083333333333, N
623368, 1731.5777777777778, N
623613, 1732.2583333333334, N
623867, 1732.963888888889, N
624120, 1733.6666666666667, N
624379, 1734.3861111111112, N
624633, 1735.0916666666667, N
624870, 1735.75, N
625107, 1736.4083333333333, N
625347, 1737.075, N
625596, 1737.7666666666667, N
625845, 1738.4583333333333, N
626103, 1739.175, N
626356, 1739.8777777777777, N
626607, 1740.575, N
626853, 1741.2583333333334, N
627098, 1741.9388888888889, N
627342, 1742.6166666666666, N
627581, 1743.2805555555556, N
627824, 1743.9555555555555, N
628078, 1744.661111111111, N
628345, 1745.4027777777778, N
628467, 1745.7416666666666, ~
628602, 1746.1166666666666, N
628854, 1746.8166666666666, N
629097, 1747.4916666666666, N
629226, 1747.85, ~
629340, 1748.1666666666667, N
629581, 1748.8361111111112, N
629824, 1749.5111111111112, N
630075, 1750.2083333333333, N
630330, 1750.9166666666667, N
630582, 1751.6166666666666, N
630838, 1752.3277777777778, N
631098, 1753.05, N
631339, 1753.7194444444444, N
631573, 1754.3694444444445, N
631813, 1755.036111111111, N
632060, 1755.7222222222222, N
632314, 1756.4277777777777, N
632573, 1757.1472222222221, N
632833, 1757.8694444444445, N
633089, 1758.5805555555555, N
633335, 1759.263888888889, N
633584, 1759.9555555555555, N
633831, 1760.6416666666667, N
633956, 1760.9888888888888, ~
634074, 1761.3166666666666, N
634317, 1761.9916666666666, N
634381, 1762.1694444444445, ~
634571, 1762.6972222222223, N
634832, 1763.4222222222222, N
635091, 1764.1416666666667, N
635351, 1764.8638888888888, N
635596, 1765.5444444444445, N
635837, 1766.213888888889, N
636079, 1766.8861111111112, N
636332, 1767.588888888889, N
636586, 1768.2944444444445, N
636845, 1769.013888888889, N
637104, 1769.7333333333333, N
637363, 1770.4527777777778, N
637611, 1771.1416666666667, N
637859, 1771.8305555555555, N
638108, 1772.5222222222221, N
638350, 1773.1944444444443, N
638593, 1773.8694444444445, N
638851, 1774.5861111111112, N
639118, 1775.3277777777778, N
639374, 1776.0388888888888, N
639625, 1776.736111111111, N
639873, 1777.425, N
640117, 1778.1027777777779, N
640358, 1778.7722222222221, N
640606, 1779.4611111111112, N
640856, 1780.1555555555556, N
641112, 1780.8666666666666, N
641370, 1781.5833333333333, N
641635, 1782.3194444444443, N
641889, 1783.025, N
642137, 1783.713888888889, N
642376, 1784.3777777777777, N
642617, 1785.0472222222222, N
642862, 1785.7277777777779, N
643121, 1786.4472222222223, N
643388, 1787.1888888888889, N
643644, 1787.9, N
643899, 1788.6083333333333, N
644151, 1789.3083333333334, N
644403, 1790.0083333333334, N
644648, 1790.6888888888889, N
644894, 1791.3722222222223, N
645144, 1792.0666666666666, N
645406, 1792.7944444444445, N
645668, 1793.5222222222221, N
645935, 1794.263888888889, N
646193, 1794.9805555555556, N
646445, 1795.6805555555557, N
646687, 1796.3527777777779, N
646936, 1797.0444444444445, N
647192, 1797.7555555555555, N
647450, 1798.4722222222222, N
647705, 1799.1805555555557, N
647968, 1799.911111111111, N
648226, 1800.6277777777777, N
648483, 1801.3416666666667, N
648733, 1802.036111111111, N
648977, 1802.713888888889, N
649221, 1803.3916666666667, N
649471, 1804.0861111111112, N
649740, 1804.8333333333333, N
