83, 0.23055555555555557, ~
229, 0.6361111111111111, +
351, 0.975, N
724, 2.011111111111111, N
1086, 3.0166666666666666, N
1448, 4.022222222222222, N
1829, 5.080555555555556, N
2197, 6.102777777777778, N
2571, 7.141666666666667, N
2918, 8.105555555555556, N
3234, 8.983333333333333, N
3571, 9.919444444444444, N
3931, 10.919444444444444, N
4281, 11.891666666666667, N
4612, 12.811111111111112, N
4947, 13.741666666666667, N
5255, 14.597222222222221, N
5558, 15.438888888888888, N
5863, 16.28611111111111, N
6174, 17.15, N
6472, 17.977777777777778, N
6757, 18.769444444444446, N
7045, 19.569444444444443, N
7336, 20.377777777777776, N
7615, 21.15277777777778, N
7897, 21.93611111111111, N
8183, 22.730555555555554, N
8475, 23.541666666666668, N
8758, 24.32777777777778, N
9025, 25.069444444444443, N
9271, 25.752777777777776, N
9517, 26.43611111111111, N
9769, 27.136111111111113, N
10038, 27.883333333333333, N
10315, 28.65277777777778, N
10583, 29.397222222222222, N
10885, 30.23611111111111, N
11244, 31.233333333333334, N
11588, 32.18888888888889, N
11935, 33.15277777777778, N
12287, 34.13055555555555, N
12649, 35.13611111111111, N
13001, 36.11388888888889, N
13319, 36.99722222222222, N
13617, 37.825, N
13754, 38.205555555555556, ~
13918, 38.66111111111111, N
14227, 39.519444444444446, N
14564, 40.455555555555556, N
14903, 41.397222222222226, N
15231, 42.30833333333333, N
15561, 43.225, N
15900, 44.166666666666664, N
16245, 45.125, N
16605, 46.125, N
16998, 47.21666666666667, N
17354, 48.205555555555556, N
17701, 49.169444444444444, N
18026, 50.07222222222222, N
18333, 50.925, N
18644, 51.78888888888889, N
18964, 52.67777777777778, N
19275, 53.541666666666664, N
19579, 54.38611111111111, N
19869, 55.19166666666667, N
20136, 55.93333333333333, N
20406, 56.68333333333333, N
20690, 57.47222222222222, N
20989, 58.30277777777778, N
21300, 59.166666666666664, N
21637, 60.102777777777774, N
22008, 61.13333333333333, N
22364, 62.12222222222222, N
22494, 62.483333333333334, ~
22689, 63.025, N
23016, 63.93333333333333, N
23364, 64.9, N
23719, 65.8861111111111, N
24048, 66.8, N
24362, 67.67222222222222, N
24683, 68.56388888888888, N
25010, 69.47222222222223, N
25338, 70.38333333333334, N
25697, 71.38055555555556, N
26068, 72.41111111111111, N
26434, 73.42777777777778, N
26787, 74.40833333333333, N
27138, 75.38333333333334, N
27471, 76.30833333333334, N
27810, 77.25, N
28161, 78.225, N
28500, 79.16666666666667, N
28801, 80.00277777777778, N
29105, 80.84722222222223, N
29408, 81.68888888888888, N
29712, 82.53333333333333, N
30024, 83.4, N
30334, 84.2611111111111, N
30630, 85.08333333333333, N
30920, 85.88888888888889, N
31190, 86.63888888888889, N
31462, 87.39444444444445, N
31726, 88.12777777777778, N
32014, 88.92777777777778, N
32336, 89.82222222222222, N
32450, 90.13888888888889, ~
32667, 90.74166666666666, N
32867, 91.29722222222222, V
33045, 91.79166666666667, V
33476, 92.9888888888889, N
33653, 93.48055555555555, V
33820, 93.94444444444444, V
34305, 95.29166666666667, N
34666, 96.29444444444445, N
34858, 96.82777777777778, V
35280, 98.0, N
35468, 98.52222222222223, V
35638, 98.99444444444444, V
36101, 100.28055555555555, N
36290, 100.80555555555556, V
36757, 102.10277777777777, N
36951, 102.64166666666667, V
37123, 103.11944444444444, V
37581, 104.39166666666667, N
37913, 105.31388888888888, N
38092, 105.81111111111112, V
38267, 106.29722222222222, V
38755, 107.65277777777777, N
38939, 108.16388888888889, V
39118, 108.66111111111111, V
39590, 109.97222222222223, N
39903, 110.84166666666667, N
40085, 111.34722222222223, V
40255, 111.81944444444444, V
40714, 113.09444444444445, N
41033, 113.98055555555555, N
41222, 114.50555555555556, V
41395, 114.98611111111111, V
41837, 116.21388888888889, N
42003, 116.675, V
42439, 117.8861111111111, N
42625, 118.40277777777777, V
42798, 118.88333333333334, V
43275, 120.20833333333333, N
43460, 120.72222222222223, V
43906, 121.96111111111111, N
44084, 122.45555555555555, V
44507, 123.63055555555556, N
44692, 124.14444444444445, V
44867, 124.63055555555556, V
45350, 125.97222222222223, N
45547, 126.51944444444445, V
45976, 127.71111111111111, N
46156, 128.2111111111111, V
46323, 128.675, V
46777, 129.9361111111111, N
46956, 130.43333333333334, V
47413, 131.70277777777778, N
47606, 132.23888888888888, V
47780, 132.72222222222223, V
48225, 133.95833333333334, N
48413, 134.48055555555555, V
48568, 134.9111111111111, V
49009, 136.13611111111112, N
49191, 136.64166666666668, V
49374, 137.15, V
49835, 138.43055555555554, N
50022, 138.95, V
50424, 140.06666666666666, N
50607, 140.575, V
50773, 141.0361111111111, V
51212, 142.25555555555556, N
51400, 142.77777777777777, V
51850, 144.02777777777777, N
52037, 144.54722222222222, V
52211, 145.03055555555557, V
52661, 146.28055555555557, N
52836, 146.76666666666668, V
53275, 147.98611111111111, N
53578, 148.82777777777778, N
53873, 149.6472222222222, N
54074, 150.20555555555555, V
54253, 150.70277777777778, V
54716, 151.98888888888888, N
54888, 152.46666666666667, V
55063, 152.95277777777778, V
55559, 154.33055555555555, N
55747, 154.8527777777778, V
56227, 156.1861111111111, N
56376, 156.6, ~
56548, 157.07777777777778, N
56842, 157.89444444444445, N
57174, 158.81666666666666, N
57495, 159.70833333333334, N
57684, 160.23333333333332, V
57875, 160.76388888888889, V
58345, 162.06944444444446, N
58534, 162.59444444444443, V
58992, 163.86666666666667, N
59170, 164.36111111111111, V
59332, 164.8111111111111, V
59595, 165.54166666666666, ~
59769, 166.025, N
59861, 166.28055555555557, +
59954, 166.5388888888889, V
60432, 167.86666666666667, N
60636, 168.43333333333334, V
61082, 169.67222222222222, N
61277, 170.2138888888889, V
61503, 170.84166666666667, +
61729, 171.46944444444443, N
62099, 172.49722222222223, N
62488, 173.57777777777778, N
62823, 174.50833333333333, N
63128, 175.35555555555555, N
63389, 176.08055555555555, ~
63499, 176.38611111111112, N
63624, 176.73333333333332, +
63691, 176.91944444444445, V
63864, 177.4, V
64035, 177.875, V
64349, 178.74722222222223, +
64568, 179.35555555555555, N
64766, 179.90555555555557, V
65287, 181.3527777777778, N
65705, 182.51388888888889, N
66104, 183.62222222222223, N
66485, 184.68055555555554, N
66886, 185.79444444444445, N
67302, 186.95, N
67702, 188.0611111111111, N
68094, 189.15, N
68464, 190.17777777777778, N
68869, 191.30277777777778, N
69270, 192.41666666666666, N
69635, 193.43055555555554, N
69758, 193.7722222222222, ~
69964, 194.34444444444443, N
70280, 195.22222222222223, N
70618, 196.1611111111111, N
70998, 197.21666666666667, N
71407, 198.3527777777778, N
71815, 199.48611111111111, N
72193, 200.5361111111111, N
72559, 201.55277777777778, N
72945, 202.625, N
73336, 203.7111111111111, N
73730, 204.80555555555554, N
74087, 205.79722222222222, N
74408, 206.6888888888889, N
74742, 207.61666666666667, N
75138, 208.71666666666667, N
75514, 209.76111111111112, N
75907, 210.8527777777778, N
76287, 211.90833333333333, N
76670, 212.97222222222223, N
77024, 213.95555555555555, N
77400, 215.0, N
77771, 216.03055555555557, N
78156, 217.1, N
78500, 218.05555555555554, N
78856, 219.04444444444445, N
79261, 220.16944444444445, N
79650, 221.25, N
80033, 222.3138888888889, N
80374, 223.26111111111112, N
80686, 224.12777777777777, N
81019, 225.05277777777778, N
81390, 226.08333333333334, N
81804, 227.23333333333332, N
82213, 228.36944444444444, N
82585, 229.40277777777777, N
82944, 230.4, N
83307, 231.40833333333333, N
83663, 232.3972222222222, N
84034, 233.42777777777778, N
84435, 234.54166666666666, N
84836, 235.65555555555557, N
85213, 236.70277777777778, N
85600, 237.77777777777777, N
86011, 238.91944444444445, N
86380, 239.94444444444446, N
86755, 240.98611111111111, N
87132, 242.03333333333333, N
87507, 243.075, N
87888, 244.13333333333333, N
88298, 245.2722222222222, N
88711, 246.41944444444445, N
89096, 247.48888888888888, N
89430, 248.41666666666666, N
89742, 249.28333333333333, N
90057, 250.15833333333333, N
90398, 251.10555555555555, N
90777, 252.15833333333333, N
91133, 253.1472222222222, N
91454, 254.0388888888889, N
91753, 254.86944444444444, N
92046, 255.68333333333334, N
92345, 256.5138888888889, N
92658, 257.3833333333333, N
93015, 258.375, N
93393, 259.425, N
93713, 260.31388888888887, N
94034, 261.2055555555556, N
94375, 262.15277777777777, N
94716, 263.1, N
95041, 264.0027777777778, N
95380, 264.94444444444446, N
95716, 265.8777777777778, N
95905, 266.40277777777777, V
96335, 267.59722222222223, N
96662, 268.50555555555553, N
97008, 269.46666666666664, N
97330, 270.3611111111111, N
97620, 271.1666666666667, N
97909, 271.96944444444443, N
98217, 272.825, N
98513, 273.64722222222224, N
98819, 274.4972222222222, N
99134, 275.3722222222222, N
99471, 276.30833333333334, N
99807, 277.2416666666667, N
100118, 278.10555555555555, N
100442, 279.00555555555553, N
100788, 279.96666666666664, N
101148, 280.96666666666664, N
101518, 281.99444444444447, N
101883, 283.0083333333333, N
102229, 283.96944444444443, N
102559, 284.8861111111111, N
102909, 285.85833333333335, N
103301, 286.9472222222222, N
103667, 287.9638888888889, N
104041, 289.0027777777778, N
104409, 290.025, N
104778, 291.05, N
105123, 292.0083333333333, N
105503, 293.06388888888887, N
105898, 294.1611111111111, N
106288, 295.24444444444447, N
106631, 296.1972222222222, N
106977, 297.15833333333336, N
107366, 298.2388888888889, N
107775, 299.375, N
108153, 300.425, N
108537, 301.4916666666667, N
108920, 302.55555555555554, N
109289, 303.5805555555556, N
109668, 304.6333333333333, N
110064, 305.73333333333335, N
110432, 306.75555555555553, N
110787, 307.7416666666667, N
111136, 308.7111111111111, N
111470, 309.6388888888889, N
111833, 310.64722222222224, N
112226, 311.7388888888889, N
112616, 312.8222222222222, N
112955, 313.7638888888889, N
113305, 314.7361111111111, N
113672, 315.75555555555553, N
114059, 316.8305555555556, N
114403, 317.7861111111111, N
114738, 318.71666666666664, N
115082, 319.6722222222222, N
115428, 320.6333333333333, N
115764, 321.56666666666666, N
116121, 322.55833333333334, N
116532, 323.7, N
116909, 324.7472222222222, N
117279, 325.775, N
117652, 326.81111111111113, N
117990, 327.75, N
118363, 328.7861111111111, N
118759, 329.8861111111111, N
119140, 330.94444444444446, N
119485, 331.90277777777777, N
119850, 332.9166666666667, N
120223, 333.9527777777778, N
120603, 335.0083333333333, N
121005, 336.125, N
121402, 337.22777777777776, N
121770, 338.25, N
122119, 339.21944444444443, N
122470, 340.19444444444446, N
122810, 341.1388888888889, N
123138, 342.05, N
123484, 343.0111111111111, N
123883, 344.11944444444447, N
124248, 345.1333333333333, N
124645, 346.2361111111111, N
125032, 347.31111111111113, N
125416, 348.3777777777778, N
125788, 349.4111111111111, N
126116, 350.3222222222222, N
126452, 351.25555555555553, N
126812, 352.25555555555553, N
127168, 353.24444444444447, N
127564, 354.34444444444443, N
127955, 355.43055555555554, N
128310, 356.4166666666667, N
128677, 357.43611111111113, N
129049, 358.46944444444443, N
129448, 359.5777777777778, N
129819, 360.60833333333335, N
130184, 361.6222222222222, N
130539, 362.60833333333335, N
130871, 363.53055555555557, N
131233, 364.5361111111111, N
131632, 365.64444444444445, N
132012, 366.7, N
132382, 367.72777777777776, N
132722, 368.6722222222222, N
133078, 369.6611111111111, N
133465, 370.7361111111111, N
133835, 371.7638888888889, N
134207, 372.7972222222222, N
134569, 373.8027777777778, N
134904, 374.73333333333335, N
135251, 375.6972222222222, N
135616, 376.7111111111111, N
135978, 377.71666666666664, N
136354, 378.7611111111111, N
136724, 379.7888888888889, N
137058, 380.71666666666664, N
137406, 381.68333333333334, N
137757, 382.65833333333336, N
138100, 383.6111111111111, N
138461, 384.6138888888889, N
138818, 385.60555555555555, N
139173, 386.59166666666664, N
139530, 387.5833333333333, N
139875, 388.5416666666667, N
140237, 389.5472222222222, N
140573, 390.48055555555555, N
140921, 391.4472222222222, N
141278, 392.43888888888887, N
141639, 393.44166666666666, N
141974, 394.3722222222222, N
142336, 395.3777777777778, N
142713, 396.425, N
143070, 397.4166666666667, N
143397, 398.325, N
143708, 399.18888888888887, N
144035, 400.09722222222223, N
144355, 400.9861111111111, N
144680, 401.8888888888889, N
144989, 402.7472222222222, N
145315, 403.65277777777777, N
145687, 404.68611111111113, N
146066, 405.7388888888889, N
146453, 406.81388888888887, N
146824, 407.84444444444443, N
147192, 408.8666666666667, N
147539, 409.8305555555556, N
147873, 410.7583333333333, N
148192, 411.64444444444445, N
148520, 412.55555555555554, N
148888, 413.5777777777778, N
149302, 414.72777777777776, N
149687, 415.7972222222222, N
150032, 416.75555555555553, N
150386, 417.7388888888889, N
150780, 418.8333333333333, N
151179, 419.94166666666666, N
151573, 421.0361111111111, N
151932, 422.03333333333336, N
152288, 423.02222222222224, N
152665, 424.06944444444446, N
153053, 425.14722222222224, N
153431, 426.1972222222222, N
153566, 426.5722222222222, ~
153786, 427.18333333333334, N
154088, 428.02222222222224, N
154381, 428.8361111111111, N
154535, 429.2638888888889, ~
154683, 429.675, N
155006, 430.5722222222222, N
155320, 431.44444444444446, N
155634, 432.31666666666666, N
155941, 433.1694444444444, N
156227, 433.9638888888889, N
156499, 434.71944444444443, N
156773, 435.48055555555555, N
157052, 436.25555555555553, N
157340, 437.05555555555554, N
157616, 437.8222222222222, N
157896, 438.6, N
158171, 439.3638888888889, N
158433, 440.09166666666664, N
158691, 440.80833333333334, N
158938, 441.49444444444447, N
159202, 442.22777777777776, N
159484, 443.0111111111111, N
159785, 443.84722222222223, N
160122, 444.78333333333336, N
160482, 445.78333333333336, N
160654, 446.2611111111111, V
161075, 447.43055555555554, N
161416, 448.3777777777778, N
161750, 449.30555555555554, N
162076, 450.2111111111111, N
162425, 451.18055555555554, N
162779, 452.1638888888889, N
162955, 452.65277777777777, V
163279, 453.5527777777778, ~
163369, 453.8027777777778, N
163708, 454.74444444444447, N
164068, 455.74444444444447, N
164415, 456.7083333333333, N
164589, 457.19166666666666, ~
164736, 457.6, N
165061, 458.5027777777778, N
165402, 459.45, N
165753, 460.425, N
166100, 461.3888888888889, N
166419, 462.275, N
166725, 463.125, N
167029, 463.96944444444443, N
167361, 464.89166666666665, N
167696, 465.8222222222222, N
168040, 466.77777777777777, N
168401, 467.78055555555557, N
168770, 468.80555555555554, N
169111, 469.7527777777778, N
169437, 470.65833333333336, N
169757, 471.5472222222222, N
170091, 472.475, N
170466, 473.51666666666665, N
170824, 474.5111111111111, N
171158, 475.43888888888887, N
171484, 476.34444444444443, N
171830, 477.30555555555554, N
172200, 478.3333333333333, N
172563, 479.34166666666664, N
172909, 480.3027777777778, N
173105, 480.84722222222223, ~
173258, 481.27222222222224, N
173599, 482.21944444444443, N
173919, 483.10833333333335, N
174234, 483.98333333333335, N
174557, 484.88055555555553, N
174888, 485.8, N
175187, 486.63055555555553, N
175490, 487.47222222222223, N
175783, 488.2861111111111, N
176070, 489.0833333333333, N
176383, 489.9527777777778, N
176700, 490.8333333333333, N
177016, 491.7111111111111, N
177330, 492.5833333333333, N
177617, 493.38055555555553, N
177888, 494.1333333333333, N
178186, 494.9611111111111, N
178495, 495.81944444444446, N
178832, 496.75555555555553, N
179177, 497.7138888888889, N
179502, 498.6166666666667, N
179810, 499.47222222222223, N
180122, 500.3388888888889, N
180442, 501.22777777777776, N
180781, 502.1694444444444, N
181141, 503.1694444444444, N
181501, 504.1694444444444, N
181831, 505.0861111111111, N
182146, 505.9611111111111, N
182464, 506.84444444444443, N
182784, 507.73333333333335, N
183104, 508.6222222222222, N
183259, 509.0527777777778, ~
183435, 509.5416666666667, N
183777, 510.4916666666667, N
184117, 511.43611111111113, N
184431, 512.3083333333333, N
184751, 513.1972222222222, N
185091, 514.1416666666667, N
185453, 515.1472222222222, N
185806, 516.1277777777777, N
186148, 517.0777777777778, N
186495, 518.0416666666666, N
186821, 518.9472222222222, N
187148, 519.8555555555556, N
187508, 520.8555555555556, N
187851, 521.8083333333333, N
188209, 522.8027777777778, N
188549, 523.7472222222223, N
188871, 524.6416666666667, N
189197, 525.5472222222222, N
189514, 526.4277777777778, N
189834, 527.3166666666667, N
190151, 528.1972222222222, N
190481, 529.1138888888889, N
190787, 529.9638888888888, N
191105, 530.8472222222222, N
191451, 531.8083333333333, N
191814, 532.8166666666667, N
192181, 533.8361111111111, N
192549, 534.8583333333333, N
192904, 535.8444444444444, N
193232, 536.7555555555556, N
193566, 537.6833333333333, N
193912, 538.6444444444444, N
194255, 539.5972222222222, N
194606, 540.5722222222222, N
194956, 541.5444444444445, N
195281, 542.4472222222222, N
195604, 543.3444444444444, N
195962, 544.3388888888888, N
196323, 545.3416666666667, N
196685, 546.3472222222222, N
197050, 547.3611111111111, N
197399, 548.3305555555555, N
197735, 549.2638888888889, N
198069, 550.1916666666667, N
198412, 551.1444444444444, N
198763, 552.1194444444444, N
199135, 553.1527777777778, N
199484, 554.1222222222223, N
199803, 555.0083333333333, N
200137, 555.9361111111111, N
200495, 556.9305555555555, N
200856, 557.9333333333333, N
201216, 558.9333333333333, N
201548, 559.8555555555556, N
201858, 560.7166666666667, N
202167, 561.575, N
202479, 562.4416666666667, N
202778, 563.2722222222222, N
203083, 564.1194444444444, N
203388, 564.9666666666667, N
203682, 565.7833333333333, N
203971, 566.5861111111111, N
204264, 567.4, N
204577, 568.2694444444444, N
204917, 569.2138888888888, N
205294, 570.2611111111111, N
205666, 571.2944444444445, N
206010, 572.25, N
206359, 573.2194444444444, N
206703, 574.175, N
207067, 575.1861111111111, N
207461, 576.2805555555556, N
207831, 577.3083333333333, N
208182, 578.2833333333333, N
208530, 579.25, N
208889, 580.2472222222223, N
209250, 581.25, N
209614, 582.2611111111111, N
209970, 583.25, N
210305, 584.1805555555555, N
210642, 585.1166666666667, N
210989, 586.0805555555555, N
211353, 587.0916666666667, N
211714, 588.0944444444444, N
212080, 589.1111111111111, N
212421, 590.0583333333333, N
212755, 590.9861111111111, N
213115, 591.9861111111111, N
213473, 592.9805555555556, N
213630, 593.4166666666666, ~
213828, 593.9666666666667, N
214184, 594.9555555555555, N
214524, 595.9, N
214817, 596.7138888888888, N
215131, 597.5861111111111, N
215477, 598.5472222222222, N
215842, 599.5611111111111, N
216204, 600.5666666666667, N
216534, 601.4833333333333, N
216849, 602.3583333333333, N
217159, 603.2194444444444, N
217486, 604.1277777777777, N
217812, 605.0333333333333, N
218136, 605.9333333333333, N
218463, 606.8416666666667, N
218793, 607.7583333333333, N
219122, 608.6722222222222, N
219450, 609.5833333333334, N
219789, 610.525, N
220142, 611.5055555555556, N
220517, 612.5472222222222, N
220877, 613.5472222222222, N
221225, 614.5138888888889, N
221597, 615.5472222222222, N
221990, 616.6388888888889, N
222392, 617.7555555555556, N
222773, 618.8138888888889, N
223138, 619.8277777777778, N
223497, 620.825, N
223843, 621.7861111111112, N
224204, 622.7888888888889, N
224563, 623.7861111111112, N
224898, 624.7166666666667, N
225229, 625.6361111111111, N
225549, 626.525, N
225857, 627.3805555555556, N
226176, 628.2666666666667, N
226496, 629.1555555555556, N
226821, 630.0583333333333, N
227130, 630.9166666666666, N
227420, 631.7222222222222, N
227719, 632.5527777777778, N
228014, 633.3722222222223, N
228338, 634.2722222222222, N
228677, 635.2138888888888, N
229005, 636.125, N
229183, 636.6194444444444, ~
229332, 637.0333333333333, N
229669, 637.9694444444444, N
229987, 638.8527777777778, N
230288, 639.6888888888889, N
230594, 640.5388888888889, N
230926, 641.4611111111111, N
231266, 642.4055555555556, N
231610, 643.3611111111111, N
231944, 644.2888888888889, N
232246, 645.1277777777777, N
232565, 646.0138888888889, N
232910, 646.9722222222222, N
233259, 647.9416666666667, N
233596, 648.8777777777777, N
233921, 649.7805555555556, N
234243, 650.675, N
234569, 651.5805555555555, N
234891, 652.475, N
235228, 653.4111111111112, N
235337, 653.7138888888888, ~
235577, 654.3805555555556, N
235934, 655.3722222222223, N
236268, 656.3, N
236594, 657.2055555555555, N
236909, 658.0805555555555, N
237236, 658.9888888888889, N
237582, 659.95, N
237933, 660.925, N
238245, 661.7916666666666, N
238565, 662.6805555555555, N
238896, 663.6, N
239256, 664.6, N
239617, 665.6027777777778, N
239960, 666.5555555555555, N
240279, 667.4416666666667, N
240574, 668.2611111111111, N
240863, 669.0638888888889, N
241171, 669.9194444444445, N
241514, 670.8722222222223, N
241866, 671.85, N
242232, 672.8666666666667, N
242598, 673.8833333333333, N
242961, 674.8916666666667, N
243304, 675.8444444444444, N
243662, 676.8388888888888, N
244021, 677.8361111111111, N
244356, 678.7666666666667, N
244698, 679.7166666666667, N
245030, 680.6388888888889, N
245367, 681.575, N
245723, 682.5638888888889, N
246073, 683.5361111111112, N
246414, 684.4833333333333, N
246748, 685.4111111111112, N
247045, 686.2361111111111, N
247339, 687.0527777777778, N
247637, 687.8805555555556, N
247951, 688.7527777777777, N
248257, 689.6027777777778, N
248563, 690.4527777777778, N
248862, 691.2833333333333, N
249161, 692.1138888888889, N
249457, 692.9361111111111, N
249743, 693.7305555555556, N
250043, 694.5638888888889, N
250353, 695.425, N
250653, 696.2583333333333, N
250959, 697.1083333333333, N
251236, 697.8777777777777, N
251519, 698.6638888888889, N
251813, 699.4805555555556, N
252118, 700.3277777777778, N
252475, 701.3194444444445, N
252829, 702.3027777777778, N
253162, 703.2277777777778, N
253472, 704.0888888888888, N
253762, 704.8944444444444, N
254064, 705.7333333333333, N
254357, 706.5472222222222, N
254669, 707.4138888888889, N
254996, 708.3222222222222, N
255307, 709.1861111111111, N
255614, 710.0388888888889, N
255919, 710.8861111111111, N
256105, 711.4027777777778, V
256508, 712.5222222222222, N
256810, 713.3611111111111, N
257112, 714.2, N
257403, 715.0083333333333, N
257493, 715.2583333333333, +
257583, 715.5083333333333, V
257770, 716.0277777777778, ~
257959, 716.5527777777778, N
258138, 717.05, V
258533, 718.1472222222222, N
258715, 718.6527777777778, V
258921, 719.225, +
259127, 719.7972222222222, N
259418, 720.6055555555556, N
259601, 721.1138888888889, V
259991, 722.1972222222222, N
260167, 722.6861111111111, V
260596, 723.8777777777777, N
260888, 724.6888888888889, N
261167, 725.4638888888888, N
261287, 725.7972222222222, ~
261479, 726.3305555555555, N
261667, 726.8527777777778, V
262044, 727.9, N
262314, 728.65, N
262577, 729.3805555555556, N
262749, 729.8583333333333, V
262918, 730.3277777777778, V
263355, 731.5416666666666, N
263646, 732.35, N
263825, 732.8472222222222, V
264211, 733.9194444444445, N
264385, 734.4027777777778, V
264759, 735.4416666666667, N
265041, 736.225, N
265336, 737.0444444444445, N
265523, 737.5638888888889, V
265932, 738.7, N
266211, 739.475, N
266387, 739.9638888888888, V
266557, 740.4361111111111, V
266939, 741.4972222222223, N
267120, 742.0, V
267492, 743.0333333333333, N
267761, 743.7805555555556, N
267946, 744.2944444444445, V
268130, 744.8055555555555, V
268507, 745.8527777777778, N
268592, 746.0888888888888, +
268678, 746.3277777777778, V
269003, 747.2305555555556, N
269191, 747.7527777777777, V
269526, 748.6833333333333, N
269719, 749.2194444444444, V
270043, 750.1194444444444, N
270225, 750.625, V
270547, 751.5194444444444, N
270721, 752.0027777777777, V
271027, 752.8527777777778, N
271192, 753.3111111111111, V
271515, 754.2083333333334, N
271687, 754.6861111111111, V
272046, 755.6833333333333, N
272220, 756.1666666666666, V
272579, 757.1638888888889, N
272749, 757.6361111111111, V
273080, 758.5555555555555, N
273242, 759.0055555555556, V
273592, 759.9777777777778, N
273767, 760.4638888888888, V
274133, 761.4805555555556, N
274313, 761.9805555555556, V
274683, 763.0083333333333, N
274849, 763.4694444444444, V
275191, 764.4194444444445, N
275361, 764.8916666666667, V
275687, 765.7972222222222, N
275876, 766.3222222222222, V
276204, 767.2333333333333, N
276380, 767.7222222222222, V
276719, 768.6638888888889, N
276897, 769.1583333333333, V
277226, 770.0722222222222, N
277390, 770.5277777777778, V
277719, 771.4416666666667, N
277883, 771.8972222222222, V
278233, 772.8694444444444, N
278414, 773.3722222222223, V
278770, 774.3611111111111, N
278942, 774.8388888888888, V
279270, 775.75, N
279430, 776.1944444444445, V
279740, 777.0555555555555, N
279900, 777.5, V
280228, 778.4111111111112, N
280401, 778.8916666666667, V
280728, 779.8, N
280901, 780.2805555555556, V
281224, 781.1777777777778, N
281389, 781.6361111111111, V
281707, 782.5194444444444, N
281866, 782.9611111111111, V
282203, 783.8972222222222, N
282362, 784.3388888888888, V
282714, 785.3166666666667, N
282884, 785.7888888888889, V
283228, 786.7444444444444, N
283401, 787.225, V
283714, 788.0944444444444, N
283872, 788.5333333333333, V
284183, 789.3972222222222, N
284353, 789.8694444444444, V
284690, 790.8055555555555, N
284862, 791.2833333333333, V
285200, 792.2222222222222, N
285364, 792.6777777777778, V
285694, 793.5944444444444, N
285848, 794.0222222222222, V
286168, 794.9111111111112, N
286331, 795.3638888888889, V
286663, 796.2861111111112, N
286830, 796.75, V
287182, 797.7277777777778, N
287355, 798.2083333333334, V
287720, 799.2222222222222, N
287882, 799.6722222222222, V
288230, 800.6388888888889, N
288389, 801.0805555555555, V
288744, 802.0666666666667, N
288916, 802.5444444444445, V
289296, 803.6, N
289477, 804.1027777777778, V
289830, 805.0833333333334, N
289996, 805.5444444444445, V
290318, 806.4388888888889, N
290487, 806.9083333333333, V
290817, 807.825, N
290993, 808.3138888888889, V
291330, 809.25, N
291509, 809.7472222222223, V
291843, 810.675, N
292014, 811.15, V
292336, 812.0444444444445, N
292503, 812.5083333333333, V
292835, 813.4305555555555, N
293002, 813.8944444444444, V
293365, 814.9027777777778, N
293539, 815.3861111111111, V
293921, 816.4472222222222, N
294108, 816.9666666666667, V
294443, 817.8972222222222, N
294622, 818.3944444444444, V
294948, 819.3, N
295133, 819.8138888888889, V
295466, 820.7388888888889, N
295665, 821.2916666666666, V
296005, 822.2361111111111, N
296184, 822.7333333333333, V
296534, 823.7055555555555, N
296701, 824.1694444444445, V
297054, 825.15, N
297223, 825.6194444444444, V
297611, 826.6972222222222, N
297789, 827.1916666666667, V
298206, 828.35, N
298385, 828.8472222222222, V
298793, 829.9805555555556, N
298961, 830.4472222222222, V
299365, 831.5694444444445, N
299539, 832.0527777777778, V
299996, 833.3222222222222, N
300180, 833.8333333333334, V
300609, 835.025, N
300786, 835.5166666666667, V
301211, 836.6972222222222, N
301387, 837.1861111111111, V
301826, 838.4055555555556, N
302009, 838.9138888888889, V
302442, 840.1166666666667, N
302631, 840.6416666666667, V
303032, 841.7555555555556, N
303209, 842.2472222222223, V
303575, 843.2638888888889, N
303753, 843.7583333333333, V
304158, 844.8833333333333, N
304343, 845.3972222222222, V
304782, 846.6166666666667, N
304967, 847.1305555555556, V
305378, 848.2722222222222, N
305550, 848.75, V
305972, 849.9222222222222, N
306162, 850.45, V
306598, 851.6611111111112, N
306790, 852.1944444444445, V
307187, 853.2972222222222, N
307378, 853.8277777777778, V
307750, 854.8611111111111, N
307931, 855.3638888888889, V
308343, 856.5083333333333, N
308531, 857.0305555555556, V
308961, 858.225, N
309157, 858.7694444444444, V
309569, 859.9138888888889, N
309742, 860.3944444444444, V
310134, 861.4833333333333, N
310326, 862.0166666666667, V
310721, 863.1138888888889, N
310919, 863.6638888888889, V
311314, 864.7611111111111, N
311497, 865.2694444444444, V
311872, 866.3111111111111, N
312048, 866.8, V
312215, 867.2638888888889, V
312638, 868.4388888888889, N
312815, 868.9305555555555, V
313216, 870.0444444444445, N
313398, 870.55, V
313583, 871.0638888888889, V
313994, 872.2055555555555, N
314152, 872.6444444444444, V
314546, 873.7388888888889, N
314722, 874.2277777777778, V
315115, 875.3194444444445, N
315317, 875.8805555555556, V
315692, 876.9222222222222, N
315880, 877.4444444444445, V
316221, 878.3916666666667, N
316392, 878.8666666666667, V
316749, 879.8583333333333, N
316933, 880.3694444444444, V
317315, 881.4305555555555, N
317493, 881.925, V
317873, 882.9805555555556, N
318049, 883.4694444444444, V
318436, 884.5444444444445, N
318609, 885.025, V
318997, 886.1027777777778, N
319176, 886.6, V
319583, 887.7305555555556, N
319781, 888.2805555555556, V
320165, 889.3472222222222, N
320343, 889.8416666666667, V
320516, 890.3222222222222, +
320689, 890.8027777777778, N
320949, 891.525, N
321140, 892.0555555555555, V
321324, 892.5666666666667, V
321758, 893.7722222222222, N
321851, 894.0305555555556, +
321945, 894.2916666666666, V
322330, 895.3611111111111, N
322512, 895.8666666666667, V
322885, 896.9027777777778, N
323064, 897.4, V
323472, 898.5333333333333, N
323673, 899.0916666666667, V
323869, 899.6361111111111, +
324066, 900.1833333333333, N
324349, 900.9694444444444, N
324616, 901.7111111111111, N
324877, 902.4361111111111, N
325060, 902.9444444444445, V
325229, 903.4138888888889, V
325622, 904.5055555555556, N
325910, 905.3055555555555, N
326191, 906.0861111111111, N
326463, 906.8416666666667, N
326553, 907.0916666666667, +
326644, 907.3444444444444, V
327026, 908.4055555555556, N
327201, 908.8916666666667, V
327578, 909.9388888888889, N
327798, 910.55, V
327977, 911.0472222222222, +
328157, 911.5472222222222, N
328438, 912.3277777777778, N
328621, 912.8361111111111, V
328790, 913.3055555555555, V
329208, 914.4666666666667, N
329390, 914.9722222222222, V
329766, 916.0166666666667, N
329977, 916.6027777777778, V
330368, 917.6888888888889, N
330650, 918.4722222222222, N
330946, 919.2944444444445, N
331036, 919.5444444444445, ~
331240, 920.1111111111111, N
331550, 920.9722222222222, N
331727, 921.4638888888888, V
332173, 922.7027777777778, N
332514, 923.65, N
332837, 924.5472222222222, N
333164, 925.4555555555555, N
333515, 926.4305555555555, N
333836, 927.3222222222222, N
334166, 928.2388888888889, N
334515, 929.2083333333334, N
334854, 930.15, N
335177, 931.0472222222222, N
335496, 931.9333333333333, N
335796, 932.7666666666667, N
336107, 933.6305555555556, N
336422, 934.5055555555556, N
336750, 935.4166666666666, N
337067, 936.2972222222222, N
337361, 937.1138888888889, N
337655, 937.9305555555555, N
337947, 938.7416666666667, N
338235, 939.5416666666666, N
338551, 940.4194444444445, N
338874, 941.3166666666667, N
339186, 942.1833333333333, N
339505, 943.0694444444445, N
339819, 943.9416666666667, N
340122, 944.7833333333333, N
340437, 945.6583333333333, N
340780, 946.6111111111111, N
341115, 947.5416666666666, N
341456, 948.4888888888889, N
341799, 949.4416666666667, N
342110, 950.3055555555555, N
342430, 951.1944444444445, N
342773, 952.1472222222222, N
343110, 953.0833333333334, N
343449, 954.025, N
343772, 954.9222222222222, N
344088, 955.8, N
344406, 956.6833333333333, N
344704, 957.5111111111111, N
345022, 958.3944444444444, N
345357, 959.325, N
345683, 960.2305555555556, N
346011, 961.1416666666667, N
346145, 961.5138888888889, ~
346322, 962.0055555555556, N
346615, 962.8194444444445, N
346899, 963.6083333333333, N
347169, 964.3583333333333, N
347457, 965.1583333333333, N
347753, 965.9805555555556, N
347955, 966.5416666666666, V
348121, 967.0027777777777, V
348514, 968.0944444444444, N
348604, 968.3444444444444, +
348695, 968.5972222222222, V
349047, 969.575, N
349247, 970.1305555555556, V
349589, 971.0805555555555, N
349772, 971.5888888888888, V
350124, 972.5666666666667, N
350322, 973.1166666666667, V
350489, 973.5805555555555, +
350657, 974.0472222222222, N
350904, 974.7333333333333, N
351083, 975.2305555555556, V
351245, 975.6805555555555, V
351652, 976.8111111111111, N
351850, 977.3611111111111, V
352243, 978.4527777777778, N
352514, 979.2055555555555, N
352780, 979.9444444444445, N
352956, 980.4333333333333, V
353107, 980.8527777777778, V
353546, 982.0722222222222, N
353743, 982.6194444444444, V
354156, 983.7666666666667, N
354350, 984.3055555555555, V
354748, 985.4111111111112, N
355013, 986.1472222222222, N
355273, 986.8694444444444, N
355537, 987.6027777777778, N
355810, 988.3611111111111, N
356114, 989.2055555555555, N
356424, 990.0666666666667, N
356611, 990.5861111111111, V
357013, 991.7027777777778, N
357301, 992.5027777777777, N
357572, 993.2555555555556, N
357875, 994.0972222222222, N
358213, 995.0361111111112, N
358410, 995.5833333333334, V
358830, 996.75, N
359135, 997.5972222222222, N
359417, 998.3805555555556, N
359603, 998.8972222222222, V
359769, 999.3583333333333, V
360202, 1000.5611111111111, N
360397, 1001.1027777777778, V
360817, 1002.2694444444444, N
361113, 1003.0916666666667, N
361386, 1003.85, N
361564, 1004.3444444444444, V
361721, 1004.7805555555556, V
362144, 1005.9555555555555, N
362335, 1006.4861111111111, V
362777, 1007.7138888888888, N
363076, 1008.5444444444445, N
363365, 1009.3472222222222, N
363646, 1010.1277777777777, N
363922, 1010.8944444444444, N
364198, 1011.6611111111112, N
364482, 1012.45, N
364788, 1013.3, N
365084, 1014.1222222222223, N
365375, 1014.9305555555555, N
365676, 1015.7666666666667, N
365969, 1016.5805555555555, N
366246, 1017.35, N
366521, 1018.1138888888889, N
366816, 1018.9333333333333, N
367131, 1019.8083333333333, N
367442, 1020.6722222222222, N
367732, 1021.4777777777778, N
368015, 1022.2638888888889, N
368302, 1023.0611111111111, N
368594, 1023.8722222222223, N
368896, 1024.7111111111112, N
369202, 1025.5611111111111, N
369504, 1026.4, N
369794, 1027.2055555555555, N
370090, 1028.0277777777778, N
370399, 1028.8861111111112, N
370704, 1029.7333333333333, N
371019, 1030.6083333333333, N
371348, 1031.5222222222221, N
371665, 1032.4027777777778, N
371991, 1033.3083333333334, N
372305, 1034.1805555555557, N
372594, 1034.9833333333333, N
372922, 1035.8944444444444, N
373279, 1036.8861111111112, N
373628, 1037.8555555555556, N
373941, 1038.725, N
374246, 1039.5722222222223, N
374526, 1040.35, N
374816, 1041.1555555555556, N
374986, 1041.6277777777777, ~
375130, 1042.0277777777778, N
375473, 1042.9805555555556, N
375803, 1043.8972222222221, N
376161, 1044.8916666666667, N
376517, 1045.8805555555555, N
376842, 1046.7833333333333, N
377189, 1047.7472222222223, N
377550, 1048.75, N
377769, 1049.3583333333333, V
378246, 1050.6833333333334, N
378447, 1051.2416666666666, V
378856, 1052.3777777777777, N
379154, 1053.2055555555555, N
379454, 1054.0388888888888, N
379791, 1054.975, N
379989, 1055.525, V
380163, 1056.0083333333334, V
380625, 1057.2916666666667, N
380802, 1057.7833333333333, V
381244, 1059.0111111111112, N
381422, 1059.5055555555555, V
381587, 1059.963888888889, V
382055, 1061.263888888889, N
382155, 1061.5416666666667, +
382255, 1061.8194444444443, V
382722, 1063.1166666666666, N
382901, 1063.6138888888888, V
383325, 1064.7916666666667, N
383507, 1065.2972222222222, V
383962, 1066.5611111111111, N
384153, 1067.0916666666667, V
384651, 1068.475, N
384834, 1068.9833333333333, V
385283, 1070.2305555555556, N
385466, 1070.7388888888888, V
385927, 1072.0194444444444, N
386109, 1072.525, V
386609, 1073.9138888888888, N
386797, 1074.4361111111111, V
387278, 1075.7722222222221, N
387456, 1076.2666666666667, V
387908, 1077.5222222222221, N
388105, 1078.0694444444443, V
388592, 1079.4222222222222, N
388792, 1079.9777777777779, V
389022, 1080.6166666666666, +
389252, 1081.2555555555555, N
389598, 1082.2166666666667, N
389919, 1083.1083333333333, N
390108, 1083.6333333333334, V
390289, 1084.1361111111112, V
390780, 1085.5, N
390977, 1086.0472222222222, V
391457, 1087.3805555555555, N
391653, 1087.925, V
391821, 1088.3916666666667, V
392256, 1089.6, N
392450, 1090.138888888889, V
392911, 1091.4194444444445, N
393111, 1091.975, V
393573, 1093.2583333333334, N
393747, 1093.7416666666666, ~
393902, 1094.1722222222222, N
394083, 1094.675, V
394525, 1095.9027777777778, N
394868, 1096.8555555555556, N
395075, 1097.4305555555557, V
395262, 1097.95, V
395715, 1099.2083333333333, N
395813, 1099.4805555555556, +
395911, 1099.7527777777777, V
396343, 1100.9527777777778, N
396528, 1101.4666666666667, V
396977, 1102.713888888889, N
397172, 1103.2555555555555, V
397410, 1103.9166666666667, +
397648, 1104.5777777777778, N
397996, 1105.5444444444445, N
398180, 1106.0555555555557, V
398358, 1106.55, V
398815, 1107.8194444444443, N
399000, 1108.3333333333333, V
399493, 1109.7027777777778, N
399869, 1110.7472222222223, N
400210, 1111.6944444444443, N
400565, 1112.6805555555557, N
400759, 1113.2194444444444, V
401234, 1114.5388888888888, N
401621, 1115.6138888888888, N
401980, 1116.611111111111, N
402358, 1117.661111111111, N
402552, 1118.2, V
403003, 1119.4527777777778, N
403354, 1120.4277777777777, N
403563, 1121.0083333333334, V
403755, 1121.5416666666667, V
404238, 1122.8833333333334, N
404338, 1123.161111111111, +
404438, 1123.4388888888889, V
404874, 1124.65, N
405059, 1125.1638888888888, V
405507, 1126.4083333333333, N
405730, 1127.0277777777778, V
405963, 1127.675, +
406196, 1128.3222222222223, N
406537, 1129.2694444444444, N
406733, 1129.8138888888889, V
406911, 1130.3083333333334, V
407349, 1131.525, N
407531, 1132.0305555555556, V
407994, 1133.3166666666666, N
408326, 1134.2388888888888, N
408524, 1134.7888888888888, V
408707, 1135.2972222222222, V
409137, 1136.4916666666666, N
409223, 1136.7305555555556, +
409310, 1136.9722222222222, V
409759, 1138.2194444444444, N
409952, 1138.7555555555555, V
410410, 1140.0277777777778, N
410603, 1140.5638888888889, V
411048, 1141.8, N
411228, 1142.3, V
411647, 1143.463888888889, N
411830, 1143.9722222222222, V
412042, 1144.5611111111111, ~
412275, 1145.2083333333333, N
412468, 1145.7444444444445, V
412937, 1147.0472222222222, N
413117, 1147.5472222222222, V
413545, 1148.736111111111, N
413724, 1149.2333333333333, V
414181, 1150.5027777777777, N
414375, 1151.0416666666667, V
414854, 1152.3722222222223, N
415043, 1152.8972222222221, V
415490, 1154.138888888889, N
415669, 1154.6361111111112, V
416125, 1155.9027777777778, N
416321, 1156.4472222222223, V
416783, 1157.7305555555556, N
416978, 1158.2722222222221, V
417433, 1159.536111111111, N
417616, 1160.0444444444445, V
418055, 1161.263888888889, N
418235, 1161.763888888889, V
418700, 1163.0555555555557, N
418900, 1163.611111111111, V
419368, 1164.911111111111, N
419551, 1165.4194444444445, V
419996, 1166.6555555555556, N
420172, 1167.1444444444444, V
420622, 1168.3944444444444, N
420819, 1168.9416666666666, V
421291, 1170.2527777777777, N
421475, 1170.763888888889, V
421926, 1172.0166666666667, N
422109, 1172.525, V
422540, 1173.7222222222222, N
422720, 1174.2222222222222, V
423197, 1175.5472222222222, N
423385, 1176.0694444444443, V
423846, 1177.35, N
424031, 1177.8638888888888, V
424473, 1179.0916666666667, N
424653, 1179.5916666666667, V
425135, 1180.9305555555557, N
425330, 1181.4722222222222, V
425800, 1182.7777777777778, N
425984, 1183.2888888888888, V
426415, 1184.486111111111, N
426598, 1184.9944444444445, V
427040, 1186.2222222222222, N
427235, 1186.763888888889, V
427458, 1187.3833333333334, +
427682, 1188.0055555555555, N
428029, 1188.9694444444444, N
428376, 1189.9333333333334, N
428567, 1190.463888888889, V
428996, 1191.6555555555556, N
429334, 1192.5944444444444, N
429690, 1193.5833333333333, N
430034, 1194.5388888888888, N
430234, 1195.0944444444444, V
430676, 1196.3222222222223, N
431023, 1197.286111111111, N
431370, 1198.25, N
431729, 1199.2472222222223, N
432092, 1200.2555555555555, N
432449, 1201.2472222222223, N
432794, 1202.2055555555555, N
433157, 1203.213888888889, N
433354, 1203.7611111111112, V
433827, 1205.075, N
434228, 1206.1888888888889, N
434601, 1207.225, N
434967, 1208.2416666666666, N
435333, 1209.2583333333334, N
435527, 1209.7972222222222, V
436007, 1211.1305555555555, N
436394, 1212.2055555555555, N
436598, 1212.7722222222221, V
437054, 1214.0388888888888, N
437425, 1215.0694444444443, N
437521, 1215.3361111111112, +
437617, 1215.6027777777779, V
438091, 1216.9194444444445, N
438296, 1217.4888888888888, V
438754, 1218.7611111111112, N
438974, 1219.3722222222223, V
439408, 1220.5777777777778, N
439596, 1221.1, V
439780, 1221.611111111111, V
440248, 1222.911111111111, N
440447, 1223.463888888889, V
440928, 1224.8, N
441116, 1225.3222222222223, V
441568, 1226.5777777777778, N
441749, 1227.0805555555555, V
442204, 1228.3444444444444, N
442402, 1228.8944444444444, V
442881, 1230.225, N
443072, 1230.7555555555555, V
443535, 1232.0416666666667, N
443716, 1232.5444444444445, V
444163, 1233.786111111111, N
444354, 1234.3166666666666, V
444588, 1234.9666666666667, +
444823, 1235.6194444444445, N
445186, 1236.6277777777777, N
445286, 1236.9055555555556, +
445386, 1237.1833333333334, V
445817, 1238.3805555555555, N
446000, 1238.888888888889, V
446447, 1240.1305555555555, N
446651, 1240.6972222222223, V
447085, 1241.9027777777778, N
447286, 1242.4611111111112, V
447679, 1243.5527777777777, N
447867, 1244.075, V
448080, 1244.6666666666667, +
448294, 1245.2611111111112, N
448625, 1246.1805555555557, N
448724, 1246.4555555555555, +
448824, 1246.7333333333333, V
449288, 1248.0222222222221, N
449497, 1248.6027777777779, V
449961, 1249.8916666666667, N
450140, 1250.388888888889, V
450571, 1251.5861111111112, N
450762, 1252.1166666666666, V
450997, 1252.7694444444444, +
451233, 1253.425, N
451593, 1254.425, N
451792, 1254.9777777777779, V
452236, 1256.2111111111112, N
452585, 1257.1805555555557, N
452681, 1257.4472222222223, +
452777, 1257.713888888889, V
453263, 1259.0638888888889, N
453460, 1259.611111111111, V
453954, 1260.9833333333333, N
454149, 1261.525, V
454605, 1262.7916666666667, N
454794, 1263.3166666666666, V
455269, 1264.6361111111112, N
455470, 1265.1944444444443, V
455958, 1266.55, N
456156, 1267.1, V
456607, 1268.3527777777779, N
456789, 1268.8583333333333, V
457256, 1270.1555555555556, N
457462, 1270.7277777777779, V
457939, 1272.0527777777777, N
458137, 1272.6027777777779, V
458600, 1273.888888888889, N
458785, 1274.4027777777778, V
459001, 1275.0027777777777, +
459217, 1275.6027777777779, N
459543, 1276.5083333333334, N
459895, 1277.486111111111, N
460098, 1278.05, V
460583, 1279.3972222222221, N
460935, 1280.375, N
461270, 1281.3055555555557, N
461646, 1282.35, N
462055, 1283.486111111111, N
462436, 1284.5444444444445, N
462826, 1285.6277777777777, N
463210, 1286.6944444444443, N
463594, 1287.7611111111112, N
463964, 1288.7888888888888, N
464358, 1289.8833333333334, N
464753, 1290.9805555555556, N
465135, 1292.0416666666667, N
465504, 1293.0666666666666, N
465879, 1294.1083333333333, N
466295, 1295.263888888889, N
466701, 1296.3916666666667, N
467086, 1297.4611111111112, N
467452, 1298.4777777777779, N
467844, 1299.5666666666666, N
468248, 1300.6888888888889, N
468625, 1301.736111111111, N
469011, 1302.8083333333334, N
469379, 1303.8305555555555, N
469758, 1304.8833333333334, N
470139, 1305.9416666666666, N
470523, 1307.0083333333334, N
470923, 1308.1194444444445, N
471280, 1309.111111111111, N
471630, 1310.0833333333333, N
472017, 1311.1583333333333, N
472405, 1312.236111111111, N
472777, 1313.2694444444444, N
473161, 1314.3361111111112, N
473528, 1315.3555555555556, N
473893, 1316.3694444444445, N
474239, 1317.3305555555555, N
474595, 1318.3194444444443, N
474987, 1319.4083333333333, N
475404, 1320.5666666666666, N
475811, 1321.6972222222223, N
476210, 1322.8055555555557, N
476609, 1323.9138888888888, N
477011, 1325.0305555555556, N
477417, 1326.1583333333333, N
477810, 1327.25, N
478186, 1328.2944444444445, N
478548, 1329.3, N
478946, 1330.4055555555556, N
479350, 1331.5277777777778, N
479741, 1332.6138888888888, N
480157, 1333.7694444444444, N
480525, 1334.7916666666667, N
480891, 1335.8083333333334, N
481278, 1336.8833333333334, N
481684, 1338.0111111111112, N
482100, 1339.1666666666667, N
482465, 1340.1805555555557, N
482856, 1341.2666666666667, N
483247, 1342.3527777777779, N
483657, 1343.4916666666666, N
484024, 1344.5111111111112, N
484387, 1345.5194444444444, N
484754, 1346.5388888888888, N
485114, 1347.5388888888888, N
485451, 1348.475, N
485814, 1349.4833333333333, N
486203, 1350.5638888888889, N
486575, 1351.5972222222222, N
486920, 1352.5555555555557, N
487281, 1353.5583333333334, N
487632, 1354.5333333333333, N
488036, 1355.6555555555556, N
488404, 1356.6777777777777, N
488777, 1357.713888888889, N
489159, 1358.775, N
489515, 1359.763888888889, N
489903, 1360.8416666666667, N
490297, 1361.9361111111111, N
490658, 1362.9388888888889, N
491007, 1363.9083333333333, N
491365, 1364.9027777777778, N
491725, 1365.9027777777778, N
492105, 1366.9583333333333, N
492498, 1368.05, N
492881, 1369.1138888888888, N
493242, 1370.1166666666666, N
493581, 1371.0583333333334, N
493930, 1372.0277777777778, N
494290, 1373.0277777777778, N
494664, 1374.0666666666666, N
495055, 1375.1527777777778, N
495412, 1376.1444444444444, N
495772, 1377.1444444444444, N
496151, 1378.1972222222223, N
496537, 1379.2694444444444, N
496929, 1380.3583333333333, N
497312, 1381.4222222222222, N
497671, 1382.4194444444445, N
498015, 1383.375, N
498354, 1384.3166666666666, N
498710, 1385.3055555555557, N
499063, 1386.286111111111, N
499430, 1387.3055555555557, N
499793, 1388.3138888888889, N
500132, 1389.2555555555555, N
500498, 1390.2722222222221, N
500893, 1391.3694444444445, N
501269, 1392.4138888888888, N
501647, 1393.463888888889, N
502007, 1394.463888888889, N
502351, 1395.4194444444445, N
502721, 1396.4472222222223, N
503121, 1397.5583333333334, N
503523, 1398.675, N
503919, 1399.775, N
504293, 1400.8138888888889, N
504701, 1401.9472222222223, N
505109, 1403.0805555555555, N
505518, 1404.2166666666667, N
505915, 1405.3194444444443, N
506283, 1406.3416666666667, N
506658, 1407.3833333333334, N
507039, 1408.4416666666666, N
507438, 1409.55, N
507860, 1410.7222222222222, N
508242, 1411.7833333333333, N
508633, 1412.8694444444445, N
509017, 1413.9361111111111, N
509414, 1415.0388888888888, N
509828, 1416.1888888888889, N
510218, 1417.2722222222221, N
510603, 1418.3416666666667, N
510953, 1419.3138888888889, N
511348, 1420.411111111111, N
511563, 1421.0083333333334, ~
511749, 1421.525, N
512125, 1422.5694444444443, N
512474, 1423.5388888888888, N
512787, 1424.4083333333333, N
513098, 1425.2722222222221, N
513402, 1426.1166666666666, N
513721, 1427.0027777777777, N
514036, 1427.8777777777777, N
514337, 1428.713888888889, N
514636, 1429.5444444444445, N
514928, 1430.3555555555556, N
515230, 1431.1944444444443, N
515532, 1432.0333333333333, N
515843, 1432.8972222222221, N
516145, 1433.736111111111, N
516453, 1434.5916666666667, N
516779, 1435.4972222222223, N
516966, 1436.0166666666667, V
517393, 1437.2027777777778, N
517707, 1438.075, N
517903, 1438.6194444444445, V
518363, 1439.8972222222221, N
518712, 1440.8666666666666, N
518806, 1441.1277777777777, +
518900, 1441.388888888889, V
519327, 1442.575, N
519526, 1443.1277777777777, V
519948, 1444.3, N
520159, 1444.8861111111112, V
520592, 1446.088888888889, N
520784, 1446.6222222222223, V
520961, 1447.1138888888888, V
521410, 1448.361111111111, N
521581, 1448.8361111111112, V
522038, 1450.1055555555556, N
522222, 1450.6166666666666, V
522692, 1451.9222222222222, N
522886, 1452.4611111111112, V
523339, 1453.7194444444444, N
523512, 1454.2, V
523932, 1455.3666666666666, N
524111, 1455.8638888888888, V
524593, 1457.2027777777778, N
524792, 1457.7555555555555, V
525253, 1459.036111111111, N
525436, 1459.5444444444445, V
525885, 1460.7916666666667, N
526060, 1461.2777777777778, V
526517, 1462.5472222222222, N
526709, 1463.0805555555555, V
527179, 1464.3861111111112, N
527372, 1464.9222222222222, V
527798, 1466.1055555555556, N
527974, 1466.5944444444444, V
528381, 1467.725, N
528564, 1468.2333333333333, V
529019, 1469.4972222222223, N
529210, 1470.0277777777778, V
529671, 1471.3083333333334, N
529847, 1471.7972222222222, V
530284, 1473.0111111111112, N
530461, 1473.5027777777777, V
530923, 1474.786111111111, N
531116, 1475.3222222222223, V
531590, 1476.638888888889, N
531779, 1477.1638888888888, V
532223, 1478.3972222222221, N
532398, 1478.8833333333334, V
532810, 1480.0277777777778, N
532997, 1480.5472222222222, V
533447, 1481.7972222222222, N
533637, 1482.325, V
534071, 1483.5305555555556, N
534246, 1484.0166666666667, V
534634, 1485.0944444444444, N
534815, 1485.5972222222222, V
535257, 1486.825, N
535442, 1487.338888888889, V
535903, 1488.6194444444445, N
536087, 1489.1305555555555, V
536518, 1490.3277777777778, N
536698, 1490.8277777777778, V
537159, 1492.1083333333333, N
537357, 1492.6583333333333, V
537823, 1493.9527777777778, N
538016, 1494.4888888888888, V
538457, 1495.713888888889, N
538638, 1496.2166666666667, V
539065, 1497.4027777777778, N
539257, 1497.9361111111111, V
539480, 1498.5555555555557, +
539703, 1499.175, N
540036, 1500.1, N
540229, 1500.6361111111112, V
540420, 1501.1666666666667, V
540870, 1502.4166666666667, N
541055, 1502.9305555555557, V
541489, 1504.1361111111112, N
541810, 1505.0277777777778, N
542006, 1505.5722222222223, V
542194, 1506.0944444444444, V
542661, 1507.3916666666667, N
542748, 1507.6333333333334, +
542836, 1507.8777777777777, V
543274, 1509.0944444444444, N
543449, 1509.5805555555555, V
543906, 1510.85, N
544110, 1511.4166666666667, V
544571, 1512.6972222222223, N
544770, 1513.25, V
545195, 1514.4305555555557, N
545374, 1514.9277777777777, V
545788, 1516.0777777777778, N
545986, 1516.6277777777777, V
546165, 1517.125, V
546631, 1518.4194444444445, N
546813, 1518.925, V
547268, 1520.1888888888889, N
547444, 1520.6777777777777, V
547863, 1521.8416666666667, N
548044, 1522.3444444444444, V
548506, 1523.6277777777777, N
548697, 1524.1583333333333, V
549133, 1525.3694444444445, N
549313, 1525.8694444444445, V
549737, 1527.0472222222222, N
549915, 1527.5416666666667, V
550357, 1528.7694444444444, N
550551, 1529.3083333333334, V
550993, 1530.536111111111, N
551181, 1531.0583333333334, V
551597, 1532.213888888889, N
551774, 1532.7055555555555, V
552196, 1533.8777777777777, N
552382, 1534.3944444444444, V
552839, 1535.6638888888888, N
553033, 1536.2027777777778, V
553492, 1537.4777777777779, N
553677, 1537.9916666666666, V
554115, 1539.2083333333333, N
554299, 1539.7194444444444, V
554758, 1540.9944444444445, N
554954, 1541.5388888888888, V
555425, 1542.8472222222222, N
555613, 1543.3694444444445, V
556035, 1544.5416666666667, N
556218, 1545.05, V
556678, 1546.3277777777778, N
556879, 1546.8861111111112, V
557337, 1548.1583333333333, N
557527, 1548.6861111111111, V
557973, 1549.925, N
558173, 1550.4805555555556, V
558593, 1551.6472222222221, N
558775, 1552.1527777777778, V
559248, 1553.4666666666667, N
559451, 1554.0305555555556, V
559923, 1555.3416666666667, N
560105, 1555.8472222222222, V
560287, 1556.3527777777779, V
560730, 1557.5833333333333, N
560919, 1558.1083333333333, V
561138, 1558.7166666666667, ~
561382, 1559.3944444444444, N
561582, 1559.95, V
561759, 1560.4416666666666, V
562230, 1561.75, N
562410, 1562.25, V
562879, 1563.5527777777777, N
563065, 1564.0694444444443, V
563243, 1564.5638888888889, V
563501, 1565.2805555555556, +
563759, 1565.9972222222223, N
564145, 1567.0694444444443, N
564497, 1568.0472222222222, N
564687, 1568.575, V
564853, 1569.036111111111, V
565339, 1570.3861111111112, N
565756, 1571.5444444444445, N
565959, 1572.1083333333333, V
566139, 1572.6083333333333, V
566620, 1573.9444444444443, N
566798, 1574.4388888888889, V
566969, 1574.9138888888888, V
567457, 1576.2694444444444, N
567850, 1577.361111111111, N
568197, 1578.325, N
568562, 1579.338888888889, N
568757, 1579.8805555555555, V
568930, 1580.361111111111, V
569392, 1581.6444444444444, N
569787, 1582.7416666666666, N
570197, 1583.8805555555555, N
570594, 1584.9833333333333, N
570977, 1586.0472222222222, N
571390, 1587.1944444444443, N
571770, 1588.25, N
572127, 1589.2416666666666, N
572496, 1590.2666666666667, N
572898, 1591.3833333333334, N
573260, 1592.388888888889, N
573649, 1593.4694444444444, N
574070, 1594.638888888889, N
574479, 1595.775, N
574893, 1596.925, N
575311, 1598.0861111111112, N
575737, 1599.2694444444444, N
576185, 1600.513888888889, N
576618, 1601.7166666666667, N
577058, 1602.9388888888889, N
577458, 1604.05, N
577858, 1605.161111111111, N
578240, 1606.2222222222222, N
578656, 1607.3777777777777, N
579103, 1608.6194444444445, N
579528, 1609.8, N
579685, 1610.236111111111, ~
579873, 1610.7583333333334, N
580227, 1611.7416666666666, N
580604, 1612.7888888888888, N
580952, 1613.7555555555555, N
581292, 1614.7, N
581505, 1615.2916666666667, V
581686, 1615.7944444444445, V
582134, 1617.0388888888888, N
582480, 1618.0, N
582836, 1618.9888888888888, N
583183, 1619.9527777777778, N
583391, 1620.5305555555556, V
583578, 1621.05, V
584064, 1622.4, N
584460, 1623.5, N
584865, 1624.625, N
585074, 1625.2055555555555, V
585266, 1625.7388888888888, V
585778, 1627.161111111111, N
586184, 1628.2888888888888, N
586376, 1628.8222222222223, V
586550, 1629.3055555555557, V
587071, 1630.7527777777777, N
587510, 1631.9722222222222, N
587713, 1632.536111111111, V
587897, 1633.0472222222222, V
588394, 1634.4277777777777, N
588831, 1635.6416666666667, N
589023, 1636.175, V
589216, 1636.7111111111112, V
589757, 1638.213888888889, N
589948, 1638.7444444444445, V
590128, 1639.2444444444445, V
590618, 1640.6055555555556, N
591021, 1641.725, N
591216, 1642.2666666666667, V
591396, 1642.7666666666667, V
591926, 1644.2388888888888, N
592352, 1645.4222222222222, N
592541, 1645.9472222222223, V
592712, 1646.4222222222222, V
593213, 1647.8138888888889, N
593646, 1649.0166666666667, N
593850, 1649.5833333333333, V
594033, 1650.0916666666667, V
594550, 1651.5277777777778, N
594966, 1652.6833333333334, N
595155, 1653.2083333333333, V
595323, 1653.675, V
595846, 1655.1277777777777, N
596305, 1656.4027777777778, N
596500, 1656.9444444444443, V
596681, 1657.4472222222223, V
597174, 1658.8166666666666, N
597364, 1659.3444444444444, V
597537, 1659.825, V
598061, 1661.2805555555556, N
598523, 1662.5638888888889, N
598719, 1663.1083333333333, V
598900, 1663.611111111111, V
599388, 1664.9666666666667, N
599565, 1665.4583333333333, V
599737, 1665.9361111111111, V
600277, 1667.4361111111111, N
600707, 1668.6305555555555, N
600906, 1669.1833333333334, V
601078, 1669.661111111111, V
601572, 1671.0333333333333, N
601984, 1672.1777777777777, N
602185, 1672.736111111111, V
602372, 1673.2555555555555, V
602902, 1674.7277777777779, N
603298, 1675.8277777777778, N
603487, 1676.3527777777779, V
603658, 1676.8277777777778, V
604146, 1678.1833333333334, N
604570, 1679.361111111111, N
604773, 1679.925, V
604958, 1680.4388888888889, V
605452, 1681.8111111111111, N
605834, 1682.8722222222223, N
606024, 1683.4, V
606203, 1683.8972222222221, V
606699, 1685.275, N
607133, 1686.4805555555556, N
607330, 1687.0277777777778, V
607521, 1687.5583333333334, V
607993, 1688.8694444444445, N
608179, 1689.3861111111112, V
608353, 1689.8694444444445, V
608853, 1691.2583333333334, N
609042, 1691.7833333333333, V
609229, 1692.3027777777777, V
609708, 1693.6333333333334, N
609895, 1694.1527777777778, V
610319, 1695.3305555555555, N
610510, 1695.861111111111, V
610682, 1696.338888888889, V
610990, 1697.1944444444443, ~
611163, 1697.675, N
611355, 1698.2083333333333, V
611528, 1698.6888888888889, V
611988, 1699.9666666666667, N
612166, 1700.4611111111112, V
612630, 1701.75, N
612822, 1702.2833333333333, V
613029, 1702.8583333333333, V
613516, 1704.2111111111112, N
613610, 1704.4722222222222, +
613704, 1704.7333333333333, V
614170, 1706.0277777777778, N
614511, 1706.975, N
614694, 1707.4833333333333, V
615159, 1708.775, N
615527, 1709.7972222222222, N
615730, 1710.361111111111, V
616211, 1711.6972222222223, N
616564, 1712.6777777777777, N
616750, 1713.1944444444443, V
616931, 1713.6972222222223, V
617447, 1715.1305555555555, N
617876, 1716.3222222222223, N
618074, 1716.8722222222223, V
618317, 1717.5472222222222, +
618560, 1718.2222222222222, N
618757, 1718.7694444444444, V
618940, 1719.2777777777778, V
619451, 1720.6972222222223, N
619877, 1721.8805555555555, N
620082, 1722.45, V
620275, 1722.986111111111, V
620775, 1724.375, N
621146, 1725.4055555555556, N
621340, 1725.9444444444443, V
621523, 1726.4527777777778, V
622062, 1727.95, N
622475, 1729.0972222222222, N
622845, 1730.125, N
623040, 1730.6666666666667, V
623224, 1731.1777777777777, V
623724, 1732.5666666666666, N
624132, 1733.7, N
624339, 1734.275, V
624521, 1734.7805555555556, V
625017, 1736.1583333333333, N
625370, 1737.138888888889, N
625559, 1737.6638888888888, V
626017, 1738.9361111111111, N
626238, 1739.55, V
626675, 1740.763888888889, N
626983, 1741.6194444444445, N
627318, 1742.55, N
627629, 1743.4138888888888, N
627831, 1743.975, V
628008, 1744.4666666666667, V
628493, 1745.8138888888889, N
628697, 1746.3805555555555, V
629117, 1747.5472222222222, N
629405, 1748.3472222222222, N
629680, 1749.111111111111, N
629971, 1749.9194444444445, N
630258, 1750.7166666666667, N
630568, 1751.5777777777778, N
630774, 1752.15, V
630950, 1752.638888888889, V
631401, 1753.8916666666667, N
631585, 1754.4027777777778, V
631982, 1755.5055555555555, N
632305, 1756.4027777777778, N
632449, 1756.8027777777777, ~
632510, 1756.9722222222222, V
632695, 1757.486111111111, V
633131, 1758.6972222222223, N
633326, 1759.2388888888888, V
633703, 1760.286111111111, N
633883, 1760.786111111111, V
634048, 1761.2444444444445, V
634470, 1762.4166666666667, N
634565, 1762.6805555555557, +
634660, 1762.9444444444443, V
635076, 1764.1, N
635269, 1764.6361111111112, V
635655, 1765.7083333333333, N
635836, 1766.2111111111112, V
636227, 1767.2972222222222, N
636406, 1767.7944444444445, V
636840, 1769.0, N
637038, 1769.55, V
637473, 1770.7583333333334, N
637662, 1771.2833333333333, V
638078, 1772.4388888888889, N
638257, 1772.9361111111111, V
638661, 1774.0583333333334, N
638856, 1774.6, V
639301, 1775.8361111111112, N
639491, 1776.3638888888888, V
639899, 1777.4972222222223, N
640085, 1778.013888888889, V
640262, 1778.5055555555555, V
640692, 1779.7, N
640877, 1780.213888888889, V
641092, 1780.8111111111111, +
641308, 1781.411111111111, N
641617, 1782.2694444444444, N
641807, 1782.7972222222222, V
641989, 1783.3027777777777, V
642400, 1784.4444444444443, N
642486, 1784.6833333333334, +
642572, 1784.9222222222222, V
642969, 1786.025, N
643157, 1786.5472222222222, V
643560, 1787.6666666666667, N
643761, 1788.225, V
643950, 1788.75, +
644140, 1789.2777777777778, N
644413, 1790.036111111111, N
644600, 1790.5555555555557, V
644768, 1791.0222222222221, V
645187, 1792.1861111111111, N
645388, 1792.7444444444445, V
645801, 1793.8916666666667, N
645996, 1794.4333333333334, V
646177, 1794.9361111111111, V
646407, 1795.575, ~
646616, 1796.1555555555556, N
646915, 1796.986111111111, N
647223, 1797.8416666666667, N
647570, 1798.8055555555557, N
647778, 1799.3833333333334, V
648265, 1800.736111111111, N
648622, 1801.7277777777779, N
648968, 1802.6888888888889, N
649162, 1803.2277777777779, V
649340, 1803.7222222222222, V
649791, 1804.975, N
