47, 0.13055555555555556, +
95, 0.2638888888888889, /
272, 0.7555555555555555, /
569, 1.5805555555555555, /
884, 2.4555555555555557, /
1206, 3.35, /
1519, 4.219444444444444, /
1820, 5.055555555555555, /
2118, 5.883333333333334, /
2414, 6.705555555555556, /
2721, 7.558333333333334, /
3033, 8.425, /
3347, 9.297222222222222, /
3661, 10.169444444444444, /
3971, 11.030555555555555, /
4267, 11.852777777777778, /
4560, 12.666666666666666, /
4860, 13.5, /
5170, 14.36111111111111, /
5490, 15.25, /
5804, 16.122222222222224, /
6109, 16.969444444444445, /
6407, 17.79722222222222, /
6712, 18.644444444444446, /
7013, 19.480555555555554, /
7318, 20.32777777777778, /
7633, 21.20277777777778, /
7946, 22.072222222222223, /
8254, 22.927777777777777, /
8551, 23.752777777777776, /
8845, 24.569444444444443, /
9142, 25.394444444444446, /
9462, 26.283333333333335, /
9781, 27.169444444444444, /
10090, 28.02777777777778, /
10398, 28.883333333333333, /
10694, 29.705555555555556, /
10994, 30.538888888888888, /
11295, 31.375, /
11604, 32.233333333333334, /
11918, 33.105555555555554, /
12240, 34.0, /
12546, 34.85, /
12839, 35.66388888888889, /
13135, 36.486111111111114, /
13431, 37.30833333333333, /
13747, 38.18611111111111, /
14068, 39.077777777777776, /
14383, 39.952777777777776, /
14688, 40.8, /
14991, 41.641666666666666, /
15288, 42.46666666666667, /
15583, 43.28611111111111, /
15889, 44.13611111111111, /
16205, 45.013888888888886, /
16522, 45.894444444444446, /
16834, 46.76111111111111, /
17128, 47.577777777777776, /
17421, 48.391666666666666, /
17727, 49.24166666666667, /
18039, 50.108333333333334, /
18354, 50.983333333333334, /
18668, 51.855555555555554, /
18975, 52.708333333333336, /
19276, 53.544444444444444, /
19576, 54.37777777777778, /
19872, 55.2, /
20173, 56.03611111111111, /
20494, 56.92777777777778, /
20813, 57.81388888888889, /
21120, 58.666666666666664, /
21417, 59.49166666666667, /
21715, 60.31944444444444, /
22014, 61.15, /
22328, 62.022222222222226, /
22643, 62.897222222222226, /
22956, 63.766666666666666, /
23267, 64.63055555555556, /
23571, 65.475, /
23867, 66.29722222222222, /
24161, 67.1138888888889, /
24466, 67.96111111111111, /
24779, 68.83055555555555, /
25101, 69.725, /
25411, 70.58611111111111, /
25710, 71.41666666666667, /
26005, 72.23611111111111, /
26314, 73.09444444444445, /
26621, 73.94722222222222, /
26930, 74.80555555555556, /
27245, 75.68055555555556, /
27553, 76.53611111111111, /
27854, 77.37222222222222, /
28152, 78.2, /
28450, 79.02777777777777, /
28751, 79.8638888888889, /
29075, 80.76388888888889, /
29391, 81.64166666666667, /
29698, 82.49444444444444, /
30000, 83.33333333333333, /
30295, 84.15277777777777, /
30597, 84.99166666666666, /
30907, 85.85277777777777, /
31219, 86.71944444444445, /
31530, 87.58333333333333, /
31848, 88.46666666666667, /
32111, 89.19722222222222, V
32402, 90.00555555555556, /
32696, 90.82222222222222, /
33000, 91.66666666666667, /
33315, 92.54166666666667, /
33637, 93.43611111111112, /
33949, 94.30277777777778, /
34249, 95.1361111111111, /
34547, 95.96388888888889, /
34850, 96.80555555555556, /
35154, 97.65, /
35462, 98.50555555555556, /
35778, 99.38333333333334, /
36091, 100.25277777777778, /
36398, 101.10555555555555, /
36692, 101.92222222222222, /
36985, 102.73611111111111, /
37289, 103.58055555555555, /
37612, 104.47777777777777, /
37930, 105.36111111111111, /
38240, 106.22222222222223, /
38545, 107.06944444444444, /
38838, 107.88333333333334, /
39137, 108.71388888888889, /
39437, 109.54722222222222, /
39747, 110.40833333333333, /
40064, 111.28888888888889, /
40386, 112.18333333333334, /
40689, 113.025, /
40982, 113.83888888888889, /
41277, 114.65833333333333, /
41578, 115.49444444444444, /
41896, 116.37777777777778, /
42215, 117.26388888888889, /
42528, 118.13333333333334, /
42831, 118.975, /
43134, 119.81666666666666, /
43430, 120.63888888888889, /
43726, 121.46111111111111, /
44036, 122.32222222222222, /
44351, 123.19722222222222, /
44668, 124.07777777777778, /
44976, 124.93333333333334, /
45273, 125.75833333333334, /
45567, 126.575, /
45877, 127.43611111111112, /
46191, 128.30833333333334, /
46502, 129.17222222222222, /
46812, 130.03333333333333, /
47116, 130.87777777777777, /
47416, 131.7111111111111, /
47714, 132.5388888888889, /
48013, 133.36944444444444, /
48320, 134.22222222222223, /
48646, 135.12777777777777, /
48959, 135.99722222222223, /
49260, 136.83333333333334, /
49559, 137.6638888888889, /
49855, 138.48611111111111, /
50158, 139.32777777777778, /
50472, 140.2, /
50787, 141.075, /
51098, 141.9388888888889, /
51412, 142.8111111111111, /
51708, 143.63333333333333, /
52001, 144.44722222222222, /
52298, 145.2722222222222, /
52605, 146.125, /
52926, 147.01666666666668, /
53248, 147.9111111111111, /
53554, 148.76111111111112, /
53847, 149.575, /
54150, 150.41666666666666, /
54451, 151.25277777777777, /
54759, 152.10833333333332, /
55071, 152.975, /
55386, 153.85, /
55695, 154.70833333333334, /
55998, 155.55, /
56291, 156.36388888888888, /
56584, 157.17777777777778, /
56897, 158.04722222222222, /
57219, 158.94166666666666, /
57535, 159.81944444444446, /
57840, 160.66666666666666, /
58141, 161.50277777777777, /
58437, 162.325, /
58739, 163.1638888888889, /
59045, 164.01388888888889, /
59355, 164.875, /
59674, 165.76111111111112, /
59988, 166.63333333333333, /
60285, 167.45833333333334, /
60577, 168.26944444444445, /
60876, 169.1, /
61182, 169.95, /
61503, 170.84166666666667, /
61819, 171.71944444444443, /
62129, 172.58055555555555, /
62428, 173.4111111111111, /
62731, 174.25277777777777, /
63030, 175.08333333333334, /
63330, 175.91666666666666, /
63644, 176.7888888888889, /
63958, 177.6611111111111, /
64271, 178.53055555555557, /
64573, 179.36944444444444, /
64868, 180.1888888888889, /
65163, 181.00833333333333, /
65478, 181.88333333333333, /
65796, 182.76666666666668, /
66107, 183.63055555555556, /
66417, 184.49166666666667, /
66716, 185.32222222222222, /
67013, 186.1472222222222, /
67315, 186.98611111111111, /
67620, 187.83333333333334, /
67928, 188.6888888888889, /
68250, 189.58333333333334, /
68562, 190.45, /
68861, 191.28055555555557, /
69154, 192.09444444444443, /
69454, 192.92777777777778, /
69763, 193.7861111111111, /
70084, 194.67777777777778, /
70397, 195.54722222222222, /
70705, 196.40277777777777, /
71008, 197.24444444444444, /
71307, 198.075, /
71605, 198.90277777777777, /
71905, 199.73611111111111, /
72221, 200.61388888888888, /
72536, 201.48888888888888, /
72852, 202.36666666666667, /
73153, 203.20277777777778, /
73447, 204.01944444444445, /
73746, 204.85, /
74059, 205.71944444444443, /
74374, 206.59444444444443, /
74685, 207.45833333333334, /
74999, 208.33055555555555, /
75298, 209.1611111111111, /
75597, 209.99166666666667, /
75892, 210.8111111111111, /
76192, 211.64444444444445, /
76506, 212.51666666666668, /
76833, 213.425, /
77145, 214.29166666666666, /
77445, 215.125, /
77741, 215.94722222222222, /
78035, 216.76388888888889, /
78343, 217.61944444444444, /
78655, 218.48611111111111, /
78967, 219.3527777777778, /
79281, 220.225, /
79592, 221.0888888888889, /
79886, 221.90555555555557, /
80177, 222.7138888888889, /
80479, 223.55277777777778, /
80790, 224.41666666666666, /
81112, 225.3111111111111, /
81428, 226.1888888888889, /
81733, 227.0361111111111, /
82028, 227.85555555555555, /
82331, 228.69722222222222, /
82633, 229.5361111111111, /
82940, 230.38888888888889, /
83256, 231.26666666666668, /
83566, 232.12777777777777, /
83874, 232.98333333333332, /
84174, 233.81666666666666, /
84469, 234.63611111111112, /
84766, 235.4611111111111, /
85088, 236.35555555555555, /
85407, 237.24166666666667, /
85715, 238.09722222222223, /
86020, 238.94444444444446, /
86314, 239.76111111111112, /
86613, 240.59166666666667, /
86917, 241.4361111111111, /
87227, 242.29722222222222, /
87538, 243.1611111111111, /
87860, 244.05555555555554, /
88163, 244.8972222222222, /
88456, 245.7111111111111, /
88752, 246.53333333333333, /
89052, 247.36666666666667, /
89368, 248.24444444444444, /
89690, 249.13888888888889, /
90004, 250.01111111111112, /
90305, 250.84722222222223, /
90606, 251.68333333333334, /
90903, 252.50833333333333, /
91201, 253.3361111111111, /
91508, 254.1888888888889, /
91824, 255.06666666666666, /
92142, 255.95, /
92453, 256.81388888888887, /
92750, 257.6388888888889, /
93041, 258.4472222222222, /
93347, 259.2972222222222, /
93591, 259.975, V
93931, 260.9194444444444, /
94240, 261.77777777777777, /
94550, 262.6388888888889, /
94848, 263.46666666666664, /
95147, 264.2972222222222, /
95442, 265.1166666666667, /
95744, 265.9555555555556, /
96062, 266.8388888888889, /
96386, 267.7388888888889, /
96696, 268.6, /
96991, 269.4194444444444, /
97288, 270.24444444444447, /
97586, 271.0722222222222, /
97896, 271.93333333333334, /
98211, 272.80833333333334, /
98525, 273.68055555555554, /
98833, 274.5361111111111, /
99140, 275.3888888888889, /
99435, 276.2083333333333, /
99728, 277.02222222222224, /
100032, 277.8666666666667, /
100346, 278.7388888888889, /
100668, 279.6333333333333, /
100980, 280.5, /
101282, 281.3388888888889, /
101575, 282.15277777777777, /
101882, 283.00555555555553, /
102187, 283.85277777777776, /
102498, 284.71666666666664, /
102811, 285.5861111111111, /
103122, 286.45, /
103424, 287.2888888888889, /
103726, 288.1277777777778, /
104022, 288.95, /
104321, 289.78055555555557, /
104643, 290.675, /
104962, 291.56111111111113, /
105273, 292.425, /
105570, 293.25, /
105867, 294.075, /
106166, 294.90555555555557, /
106476, 295.76666666666665, /
106788, 296.6333333333333, /
107099, 297.4972222222222, /
107414, 298.3722222222222, /
107718, 299.21666666666664, /
108013, 300.0361111111111, /
108307, 300.85277777777776, /
108614, 301.7055555555556, /
108930, 302.5833333333333, /
109251, 303.475, /
109563, 304.34166666666664, /
109862, 305.1722222222222, /
110159, 305.9972222222222, /
110461, 306.8361111111111, /
110766, 307.68333333333334, /
111075, 308.5416666666667, /
111392, 309.4222222222222, /
111703, 310.2861111111111, /
112008, 311.1333333333333, /
112305, 311.9583333333333, /
112600, 312.77777777777777, /
112902, 313.6166666666667, /
113228, 314.52222222222224, /
113546, 315.40555555555557, /
113853, 316.2583333333333, /
114156, 317.1, /
114449, 317.9138888888889, /
114750, 318.75, /
115054, 319.59444444444443, /
115365, 320.4583333333333, /
115679, 321.3305555555556, /
116002, 322.22777777777776, /
116304, 323.06666666666666, /
116596, 323.8777777777778, /
116893, 324.7027777777778, /
117194, 325.5388888888889, /
117512, 326.4222222222222, /
117830, 327.30555555555554, /
118142, 328.1722222222222, /
118444, 329.0111111111111, /
118748, 329.85555555555555, /
119043, 330.675, /
119340, 331.5, /
119651, 332.3638888888889, /
119966, 333.2388888888889, /
120282, 334.1166666666667, /
120591, 334.975, /
120889, 335.8027777777778, /
121182, 336.6166666666667, /
121490, 337.47222222222223, /
121804, 338.34444444444443, /
122116, 339.2111111111111, /
122429, 340.0805555555556, /
122733, 340.925, /
123031, 341.7527777777778, /
123332, 342.5888888888889, /
123631, 343.4194444444444, /
123937, 344.26944444444445, /
124261, 345.1694444444444, /
124576, 346.0444444444444, /
124879, 346.8861111111111, /
125175, 347.7083333333333, /
125470, 348.52777777777777, /
125774, 349.3722222222222, /
126090, 350.25, /
126405, 351.125, /
126713, 351.98055555555555, /
127024, 352.84444444444443, /
127322, 353.6722222222222, /
127616, 354.4888888888889, /
127912, 355.31111111111113, /
128222, 356.1722222222222, /
128543, 357.06388888888887, /
128863, 357.9527777777778, /
129169, 358.8027777777778, /
129463, 359.61944444444447, /
129763, 360.4527777777778, /
130065, 361.2916666666667, /
130374, 362.15, /
130688, 363.02222222222224, /
131002, 363.89444444444445, /
131310, 364.75, /
131613, 365.59166666666664, /
131907, 366.40833333333336, /
132200, 367.22222222222223, /
132512, 368.0888888888889, /
132836, 368.9888888888889, /
133153, 369.86944444444447, /
133456, 370.7111111111111, /
133756, 371.5444444444444, /
134052, 372.3666666666667, /
134356, 373.2111111111111, /
134660, 374.05555555555554, /
134971, 374.9194444444444, /
135291, 375.80833333333334, /
135605, 376.68055555555554, /
135903, 377.5083333333333, /
136194, 378.31666666666666, /
136493, 379.14722222222224, /
136800, 380.0, /
137123, 380.89722222222224, /
137438, 381.77222222222224, /
137744, 382.6222222222222, /
138041, 383.4472222222222, /
138345, 384.2916666666667, /
138644, 385.1222222222222, /
138945, 385.9583333333333, /
139260, 386.8333333333333, /
139573, 387.7027777777778, /
139884, 388.56666666666666, /
140185, 389.40277777777777, /
140482, 390.22777777777776, /
140778, 391.05, /
141095, 391.93055555555554, /
141412, 392.81111111111113, /
141722, 393.6722222222222, /
142031, 394.53055555555557, /
142329, 395.35833333333335, /
142627, 396.18611111111113, /
142931, 397.03055555555557, /
143236, 397.8777777777778, /
143545, 398.7361111111111, /
143868, 399.6333333333333, /
144179, 400.4972222222222, /
144478, 401.3277777777778, /
144770, 402.1388888888889, /
145070, 402.97222222222223, /
145379, 403.8305555555556, /
145699, 404.71944444444443, /
146013, 405.59166666666664, /
146318, 406.43888888888887, /
146622, 407.28333333333336, /
146920, 408.1111111111111, /
147217, 408.93611111111113, /
147517, 409.76944444444445, /
147834, 410.65, /
148152, 411.53333333333336, /
148467, 412.40833333333336, /
148767, 413.2416666666667, /
149061, 414.05833333333334, /
149361, 414.89166666666665, /
149672, 415.75555555555553, /
149988, 416.6333333333333, /
150299, 417.4972222222222, /
150612, 418.3666666666667, /
150911, 419.1972222222222, /
151210, 420.02777777777777, /
151507, 420.85277777777776, /
151808, 421.68888888888887, /
152123, 422.56388888888887, /
152450, 423.47222222222223, /
152764, 424.34444444444443, /
153061, 425.1694444444444, /
153358, 425.99444444444447, /
153653, 426.81388888888887, /
153962, 427.6722222222222, /
154274, 428.5388888888889, /
154588, 429.4111111111111, /
154899, 430.275, /
155210, 431.1388888888889, /
155505, 431.9583333333333, /
155797, 432.76944444444445, /
156100, 433.6111111111111, /
156412, 434.47777777777776, /
156734, 435.3722222222222, /
157048, 436.24444444444447, /
157350, 437.0833333333333, /
157645, 437.90277777777777, /
157949, 438.7472222222222, /
158251, 439.5861111111111, /
158559, 440.44166666666666, /
158874, 441.31666666666666, /
159186, 442.18333333333334, /
159492, 443.03333333333336, /
159790, 443.8611111111111, /
160087, 444.68611111111113, /
160386, 445.51666666666665, /
160709, 446.4138888888889, /
161026, 447.2944444444444, /
161335, 448.15277777777777, /
161639, 448.9972222222222, /
161932, 449.81111111111113, /
162232, 450.64444444444445, /
162539, 451.4972222222222, /
162848, 452.35555555555555, /
163160, 453.22222222222223, /
163482, 454.1166666666667, /
163786, 454.9611111111111, /
164078, 455.77222222222224, /
164373, 456.59166666666664, /
164674, 457.4277777777778, /
164990, 458.30555555555554, /
165311, 459.1972222222222, /
165623, 460.06388888888887, /
165923, 460.89722222222224, /
166227, 461.7416666666667, /
166522, 462.56111111111113, /
166818, 463.3833333333333, /
167128, 464.24444444444447, /
167445, 465.125, /
167761, 466.0027777777778, /
168071, 466.8638888888889, /
168368, 467.68888888888887, /
168661, 468.5027777777778, /
168968, 469.35555555555555, /
169281, 470.225, /
169595, 471.09722222222223, /
169907, 471.9638888888889, /
170212, 472.81111111111113, /
170512, 473.64444444444445, /
170813, 474.48055555555555, /
171110, 475.30555555555554, /
171414, 476.15, /
171737, 477.0472222222222, /
172055, 477.93055555555554, /
172361, 478.78055555555557, /
172656, 479.6, /
172953, 480.425, /
173254, 481.2611111111111, /
173570, 482.1388888888889, /
173882, 483.00555555555553, /
174192, 483.8666666666667, /
174505, 484.7361111111111, /
174805, 485.56944444444446, /
175100, 486.3888888888889, /
175394, 487.2055555555556, /
175704, 488.06666666666666, /
176023, 488.9527777777778, /
176342, 489.8388888888889, /
176648, 490.68888888888887, /
176943, 491.5083333333333, /
177241, 492.3361111111111, /
177546, 493.18333333333334, /
177854, 494.0388888888889, /
178166, 494.90555555555557, /
178483, 495.7861111111111, /
178788, 496.6333333333333, /
179090, 497.47222222222223, /
179385, 498.2916666666667, /
179683, 499.11944444444447, /
179990, 499.97222222222223, /
180316, 500.8777777777778, /
180633, 501.7583333333333, /
180937, 502.60277777777776, /
181236, 503.43333333333334, /
181529, 504.2472222222222, /
181833, 505.09166666666664, /
182095, 505.81944444444446, V
182428, 506.74444444444447, /
182742, 507.6166666666667, /
183058, 508.49444444444447, /
183357, 509.325, /
183648, 510.1333333333333, /
183944, 510.9555555555556, /
184250, 511.80555555555554, /
184570, 512.6944444444445, /
184890, 513.5833333333334, /
185201, 514.4472222222222, /
185497, 515.2694444444444, /
185798, 516.1055555555556, /
186096, 516.9333333333333, /
186399, 517.775, /
186710, 518.6388888888889, /
187028, 519.5222222222222, /
187341, 520.3916666666667, /
187647, 521.2416666666667, /
187941, 522.0583333333333, /
188234, 522.8722222222223, /
188545, 523.7361111111111, /
188865, 524.625, /
189181, 525.5027777777777, /
189489, 526.3583333333333, /
189791, 527.1972222222222, /
190086, 528.0166666666667, /
190388, 528.8555555555556, /
190690, 529.6944444444445, /
190999, 530.5527777777778, /
191318, 531.4388888888889, /
191636, 532.3222222222222, /
191938, 533.1611111111112, /
192230, 533.9722222222222, /
192530, 534.8055555555555, /
192835, 535.6527777777778, /
193154, 536.5388888888889, /
193467, 537.4083333333333, /
193776, 538.2666666666667, /
194081, 539.1138888888889, /
194383, 539.9527777777778, /
194680, 540.7777777777778, /
194978, 541.6055555555556, /
195292, 542.4777777777778, /
195607, 543.3527777777778, /
195922, 544.2277777777778, /
196224, 545.0666666666667, /
196520, 545.8888888888889, /
196818, 546.7166666666667, /
197130, 547.5833333333334, /
197443, 548.4527777777778, /
197754, 549.3166666666667, /
198068, 550.1888888888889, /
198368, 551.0222222222222, /
198666, 551.85, /
198963, 552.675, /
199264, 553.5111111111111, /
199575, 554.375, /
199902, 555.2833333333333, /
200215, 556.1527777777778, /
200517, 556.9916666666667, /
200813, 557.8138888888889, /
201107, 558.6305555555556, /
201414, 559.4833333333333, /
201726, 560.35, /
202040, 561.2222222222222, /
202353, 562.0916666666667, /
202664, 562.9555555555555, /
202961, 563.7805555555556, /
203251, 564.5861111111111, /
203550, 565.4166666666666, /
203862, 566.2833333333333, /
204184, 567.1777777777778, /
204498, 568.05, /
204804, 568.9, /
205099, 569.7194444444444, /
205403, 570.5638888888889, /
205703, 571.3972222222222, /
206009, 572.2472222222223, /
206324, 573.1222222222223, /
206636, 573.9888888888889, /
206945, 574.8472222222222, /
207243, 575.675, /
207538, 576.4944444444444, /
207835, 577.3194444444445, /
208157, 578.2138888888888, /
208476, 579.1, /
208785, 579.9583333333334, /
209092, 580.8111111111111, /
209386, 581.6277777777777, /
209686, 582.4611111111111, /
209988, 583.3, /
210296, 584.1555555555556, /
210609, 585.025, /
210933, 585.925, /
211239, 586.775, /
211534, 587.5944444444444, /
211829, 588.4138888888889, /
212127, 589.2416666666667, /
212442, 590.1166666666667, /
212764, 591.0111111111111, /
213076, 591.8777777777777, /
213299, 592.4972222222223, V
213627, 593.4083333333333, /
213925, 594.2361111111111, /
214222, 595.0611111111111, /
214524, 595.9, /
214840, 596.7777777777778, /
215158, 597.6611111111112, /
215471, 598.5305555555556, /
215768, 599.3555555555556, /
216061, 600.1694444444445, /
216364, 601.0111111111111, /
216676, 601.8777777777777, /
216990, 602.75, /
217302, 603.6166666666667, /
217614, 604.4833333333333, /
217912, 605.3111111111111, /
218210, 606.1388888888889, /
218507, 606.9638888888888, /
218809, 607.8027777777778, /
219126, 608.6833333333333, /
219450, 609.5833333333334, /
219761, 610.4472222222222, /
220058, 611.2722222222222, /
220354, 612.0944444444444, /
220650, 612.9166666666666, /
220961, 613.7805555555556, /
221277, 614.6583333333333, /
221511, 615.3083333333333, V
221842, 616.2277777777778, /
222151, 617.0861111111111, /
222445, 617.9027777777778, /
222738, 618.7166666666667, /
223037, 619.5472222222222, /
223350, 620.4166666666666, /
223671, 621.3083333333333, /
223989, 622.1916666666667, /
224293, 623.0361111111112, /
224585, 623.8472222222222, /
224887, 624.6861111111111, /
225191, 625.5305555555556, /
225501, 626.3916666666667, /
225815, 627.2638888888889, /
226128, 628.1333333333333, /
226434, 628.9833333333333, /
226734, 629.8166666666667, /
227027, 630.6305555555556, /
227325, 631.4583333333334, /
227643, 632.3416666666667, /
227965, 633.2361111111111, /
228280, 634.1111111111111, /
228580, 634.9444444444445, /
228879, 635.775, /
229176, 636.6, /
229482, 637.45, /
229792, 638.3111111111111, /
230104, 639.1777777777778, /
230419, 640.0527777777778, /
230730, 640.9166666666666, /
231028, 641.7444444444444, /
231320, 642.5555555555555, /
231621, 643.3916666666667, /
231935, 644.2638888888889, /
232258, 645.1611111111112, /
232570, 646.0277777777778, /
232872, 646.8666666666667, /
233172, 647.7, /
233474, 648.5388888888889, /
233775, 649.375, /
234080, 650.2222222222222, /
234397, 651.1027777777778, /
234709, 651.9694444444444, /
235018, 652.8277777777778, /
235314, 653.65, /
235608, 654.4666666666667, /
235909, 655.3027777777778, /
236230, 656.1944444444445, /
236548, 657.0777777777778, /
236858, 657.9388888888889, /
237164, 658.7888888888889, /
237459, 659.6083333333333, /
237757, 660.4361111111111, /
238057, 661.2694444444444, /
238365, 662.125, /
238681, 663.0027777777777, /
239005, 663.9027777777778, /
239311, 664.7527777777777, /
239606, 665.5722222222222, /
239902, 666.3944444444444, /
240200, 667.2222222222222, /
240515, 668.0972222222222, /
240834, 668.9833333333333, /
241146, 669.85, /
241451, 670.6972222222222, /
241756, 671.5444444444445, /
242052, 672.3666666666667, /
242345, 673.1805555555555, /
242652, 674.0333333333333, /
242967, 674.9083333333333, /
243287, 675.7972222222222, /
243596, 676.6555555555556, /
243895, 677.4861111111111, /
244189, 678.3027777777778, /
244496, 679.1555555555556, /
244805, 680.0138888888889, /
245115, 680.875, /
245429, 681.7472222222223, /
245736, 682.6, /
246038, 683.4388888888889, /
246336, 684.2666666666667, /
246633, 685.0916666666667, /
246937, 685.9361111111111, /
247262, 686.8388888888888, /
247579, 687.7194444444444, /
247885, 688.5694444444445, /
248184, 689.4, /
248478, 690.2166666666667, /
248781, 691.0583333333333, /
249090, 691.9166666666666, /
249405, 692.7916666666666, /
249716, 693.6555555555556, /
250033, 694.5361111111112, /
250332, 695.3666666666667, /
250625, 696.1805555555555, /
250920, 697.0, /
251225, 697.8472222222222, /
251546, 698.7388888888889, /
251868, 699.6333333333333, /
252176, 700.4888888888889, /
252472, 701.3111111111111, /
252774, 702.15, /
253074, 702.9833333333333, /
253377, 703.825, /
253689, 704.6916666666667, /
254004, 705.5666666666667, /
254317, 706.4361111111111, /
254620, 707.2777777777778, /
254914, 708.0944444444444, /
255207, 708.9083333333333, /
255518, 709.7722222222222, /
255838, 710.6611111111112, /
256153, 711.5361111111112, /
256462, 712.3944444444444, /
256764, 713.2333333333333, /
257059, 714.0527777777778, /
257361, 714.8916666666667, /
257665, 715.7361111111111, /
257974, 716.5944444444444, /
258293, 717.4805555555556, /
258609, 718.3583333333333, /
258910, 719.1944444444445, /
259203, 720.0083333333333, /
259502, 720.8388888888888, /
259806, 721.6833333333333, /
260127, 722.575, /
260443, 723.4527777777778, /
260753, 724.3138888888889, /
261054, 725.15, /
261356, 725.9888888888889, /
261654, 726.8166666666667, /
261950, 727.6388888888889, /
262263, 728.5083333333333, /
262578, 729.3833333333333, /
262895, 730.2638888888889, /
263197, 731.1027777777778, /
263493, 731.925, /
263788, 732.7444444444444, /
264101, 733.6138888888889, /
264415, 734.4861111111111, /
264726, 735.35, /
265040, 736.2222222222222, /
265341, 737.0583333333333, /
265639, 737.8861111111111, /
265939, 738.7194444444444, /
266242, 739.5611111111111, /
266551, 740.4194444444445, /
266873, 741.3138888888889, /
267189, 742.1916666666667, /
267490, 743.0277777777778, /
267786, 743.85, /
268082, 744.6722222222222, /
268389, 745.525, /
268709, 746.4138888888889, /
269023, 747.2861111111112, /
269331, 748.1416666666667, /
269638, 748.9944444444444, /
269937, 749.825, /
270232, 750.6444444444444, /
270530, 751.4722222222222, /
270843, 752.3416666666667, /
271163, 753.2305555555556, /
271483, 754.1194444444444, /
271785, 754.9583333333334, /
272009, 755.5805555555555, V
272285, 756.3472222222222, /
272592, 757.2, /
272902, 758.0611111111111, /
273213, 758.925, /
273528, 759.8, /
273834, 760.65, /
274135, 761.4861111111111, /
274430, 762.3055555555555, /
274726, 763.1277777777777, /
275035, 763.9861111111111, /
275362, 764.8944444444444, /
275678, 765.7722222222222, /
275983, 766.6194444444444, /
276282, 767.45, /
276576, 768.2666666666667, /
276878, 769.1055555555556, /
277186, 769.9611111111111, /
277500, 770.8333333333334, /
277815, 771.7083333333334, /
278131, 772.5861111111111, /
278429, 773.4138888888889, /
278721, 774.225, /
279019, 775.0527777777778, /
279323, 775.8972222222222, /
279646, 776.7944444444445, /
279963, 777.675, /
280272, 778.5333333333333, /
280570, 779.3611111111111, /
280873, 780.2027777777778, /
281172, 781.0333333333333, /
281472, 781.8666666666667, /
281785, 782.7361111111111, /
282100, 783.6111111111111, /
282413, 784.4805555555556, /
282674, 785.2055555555555, V
282945, 785.9583333333334, /
283238, 786.7722222222222, /
283551, 787.6416666666667, /
283867, 788.5194444444444, /
284179, 789.3861111111111, /
284491, 790.2527777777777, /
284792, 791.0888888888888, /
285090, 791.9166666666666, /
285391, 792.7527777777777, /
285693, 793.5916666666667, /
286000, 794.4444444444445, /
286322, 795.3388888888888, /
286637, 796.2138888888888, /
286938, 797.05, /
287232, 797.8666666666667, /
287529, 798.6916666666667, /
287836, 799.5444444444445, /
288137, 800.3805555555556, V
288426, 801.1833333333333, /
288733, 802.0361111111112, /
289042, 802.8944444444444, /
289342, 803.7277777777778, /
289639, 804.5527777777778, /
289934, 805.3722222222223, /
290247, 806.2416666666667, /
290563, 807.1194444444444, /
290883, 808.0083333333333, /
291186, 808.85, /
291481, 809.6694444444445, /
291781, 810.5027777777777, /
292087, 811.3527777777778, /
292400, 812.2222222222222, /
292712, 813.0888888888888, /
293026, 813.9611111111111, /
293330, 814.8055555555555, /
293630, 815.6388888888889, /
293924, 816.4555555555555, /
294220, 817.2777777777778, /
294531, 818.1416666666667, /
294857, 819.0472222222222, /
295172, 819.9222222222222, /
295475, 820.7638888888889, /
295772, 821.5888888888888, /
296067, 822.4083333333333, /
296306, 823.0722222222222, V
296594, 823.8722222222223, /
296908, 824.7444444444444, /
297218, 825.6055555555556, /
297534, 826.4833333333333, /
297834, 827.3166666666667, /
298128, 828.1333333333333, /
298424, 828.9555555555555, /
298729, 829.8027777777778, /
299048, 830.6888888888889, /
299373, 831.5916666666667, /
299682, 832.45, /
299978, 833.2722222222222, /
300278, 834.1055555555556, /
300579, 834.9416666666667, /
300884, 835.7888888888889, /
301193, 836.6472222222222, /
301510, 837.5277777777778, /
301823, 838.3972222222222, /
302125, 839.2361111111111, /
302419, 840.0527777777778, /
302714, 840.8722222222223, /
303021, 841.725, /
303344, 842.6222222222223, /
303661, 843.5027777777777, /
303969, 844.3583333333333, /
304272, 845.2, /
304505, 845.8472222222222, V
304781, 846.6138888888889, /
305086, 847.4611111111111, /
305396, 848.3222222222222, /
305710, 849.1944444444445, /
306031, 850.0861111111111, /
306335, 850.9305555555555, /
306629, 851.7472222222223, /
306925, 852.5694444444445, /
307225, 853.4027777777778, /
307544, 854.2888888888889, /
307866, 855.1833333333333, /
308179, 856.0527777777778, /
308479, 856.8861111111111, /
308781, 857.725, /
309079, 858.5527777777778, /
309377, 859.3805555555556, /
309685, 860.2361111111111, /
310001, 861.1138888888889, /
310319, 861.9972222222223, /
310631, 862.8638888888889, /
310925, 863.6805555555555, /
311217, 864.4916666666667, /
311526, 865.35, /
311842, 866.2277777777778, /
312156, 867.1, /
312467, 867.9638888888888, /
312772, 868.8111111111111, /
313071, 869.6416666666667, /
313371, 870.475, /
313668, 871.3, /
313972, 872.1444444444444, /
314296, 873.0444444444445, /
314613, 873.925, /
314918, 874.7722222222222, /
315215, 875.5972222222222, /
315512, 876.4222222222222, /
315814, 877.2611111111111, /
316130, 878.1388888888889, /
316444, 879.0111111111111, /
316753, 879.8694444444444, /
317065, 880.7361111111111, /
317296, 881.3777777777777, V
317569, 882.1361111111111, /
317864, 882.9555555555555, /
318168, 883.8, /
318482, 884.6722222222222, /
318804, 885.5666666666667, /
319116, 886.4333333333333, /
319416, 887.2666666666667, /
319712, 888.0888888888888, /
320018, 888.9388888888889, /
320324, 889.7888888888889, /
320633, 890.6472222222222, /
320947, 891.5194444444444, /
321257, 892.3805555555556, /
321560, 893.2222222222222, /
321855, 894.0416666666666, /
322151, 894.8638888888889, /
322455, 895.7083333333334, /
322778, 896.6055555555556, /
323096, 897.4888888888889, /
323402, 898.3388888888888, /
323705, 899.1805555555555, /
323998, 899.9944444444444, /
324300, 900.8333333333334, /
324605, 901.6805555555555, /
324918, 902.55, /
325230, 903.4166666666666, /
325551, 904.3083333333333, /
325851, 905.1416666666667, /
326143, 905.9527777777778, /
326380, 906.6111111111111, V
326656, 907.3777777777777, /
326974, 908.2611111111111, /
327297, 909.1583333333333, /
327610, 910.0277777777778, /
327911, 910.8638888888889, /
328213, 911.7027777777778, /
328511, 912.5305555555556, /
328810, 913.3611111111111, /
329116, 914.2111111111111, /
329432, 915.0888888888888, /
329749, 915.9694444444444, /
330060, 916.8333333333334, /
330354, 917.65, /
330646, 918.4611111111111, /
330953, 919.3138888888889, /
331269, 920.1916666666667, /
331552, 920.9777777777778, V
331838, 921.7722222222222, /
332147, 922.6305555555556, /
332443, 923.4527777777778, /
332742, 924.2833333333333, /
333039, 925.1083333333333, /
333342, 925.95, /
333660, 926.8333333333334, /
333983, 927.7305555555556, /
334291, 928.5861111111111, /
334586, 929.4055555555556, /
334883, 930.2305555555556, /
335114, 930.8722222222223, V
335399, 931.6638888888889, /
335720, 932.5555555555555, /
336036, 933.4333333333333, /
336344, 934.2888888888889, /
336651, 935.1416666666667, /
336946, 935.9611111111111, /
337241, 936.7805555555556, /
337542, 937.6166666666667, /
337855, 938.4861111111111, /
338175, 939.375, /
338495, 940.2638888888889, /
338796, 941.1, /
339087, 941.9083333333333, /
339389, 942.7472222222223, /
339697, 943.6027777777778, /
340010, 944.4722222222222, /
340321, 945.3361111111111, /
340636, 946.2111111111111, /
340939, 947.0527777777778, /
341237, 947.8805555555556, /
341532, 948.7, /
341830, 949.5277777777778, /
342146, 950.4055555555556, /
342468, 951.3, /
342781, 952.1694444444445, /
343082, 953.0055555555556, /
343382, 953.8388888888888, /
343677, 954.6583333333333, /
343985, 955.5138888888889, /
344296, 956.3777777777777, /
344608, 957.2444444444444, /
344922, 958.1166666666667, /
345233, 958.9805555555556, /
345530, 959.8055555555555, /
345821, 960.6138888888889, /
346123, 961.4527777777778, /
346433, 962.3138888888889, /
346757, 963.2138888888888, /
347071, 964.0861111111111, /
347376, 964.9333333333333, /
347671, 965.7527777777777, /
347977, 966.6027777777778, /
348279, 967.4416666666667, /
348585, 968.2916666666666, /
348901, 969.1694444444445, /
349212, 970.0333333333333, /
349522, 970.8944444444444, /
349819, 971.7194444444444, /
350073, 972.425, V
350346, 973.1833333333333, /
350665, 974.0694444444445, /
350986, 974.9611111111111, /
351296, 975.8222222222222, /
351603, 976.675, /
351902, 977.5055555555556, /
352199, 978.3305555555555, /
352503, 979.175, /
352808, 980.0222222222222, /
353119, 980.8861111111111, /
353442, 981.7833333333333, /
353750, 982.6388888888889, /
354045, 983.4583333333334, /
354340, 984.2777777777778, /
354638, 985.1055555555556, /
354950, 985.9722222222222, /
355274, 986.8722222222223, /
355590, 987.75, /
355894, 988.5944444444444, /
356197, 989.4361111111111, /
356444, 990.1222222222223, V
356718, 990.8833333333333, /
357020, 991.7222222222222, /
357334, 992.5944444444444, /
357650, 993.4722222222222, /
357968, 994.3555555555556, /
358265, 995.1805555555555, /
358558, 995.9944444444444, /
358859, 996.8305555555555, /
359169, 997.6916666666667, /
359487, 998.575, /
359796, 999.4333333333333, /
360109, 1000.3027777777778, /
360410, 1001.1388888888889, /
360708, 1001.9666666666667, /
361003, 1002.7861111111112, /
361303, 1003.6194444444444, /
361619, 1004.4972222222223, /
361942, 1005.3944444444444, /
362255, 1006.2638888888889, /
362479, 1006.8861111111111, V
362753, 1007.6472222222222, /
363049, 1008.4694444444444, /
363275, 1009.0972222222222, V
363610, 1010.0277777777778, /
363925, 1010.9027777777778, /
364235, 1011.7638888888889, /
364549, 1012.6361111111111, /
364847, 1013.4638888888888, /
365139, 1014.275, /
365438, 1015.1055555555556, /
365744, 1015.9555555555555, /
366064, 1016.8444444444444, /
366386, 1017.7388888888889, /
366693, 1018.5916666666667, /
366988, 1019.4111111111112, /
367290, 1020.25, /
367592, 1021.0888888888888, /
367837, 1021.7694444444444, V
368122, 1022.5611111111111, /
368439, 1023.4416666666667, /
368750, 1024.3055555555557, /
369055, 1025.1527777777778, /
369347, 1025.963888888889, /
369640, 1026.7777777777778, /
369947, 1027.6305555555555, /
370270, 1028.5277777777778, /
370588, 1029.411111111111, /
370896, 1030.2666666666667, /
371200, 1031.111111111111, /
371495, 1031.9305555555557, /
371795, 1032.763888888889, /
372097, 1033.6027777777779, /
372406, 1034.4611111111112, /
372723, 1035.3416666666667, /
373044, 1036.2333333333333, /
373345, 1037.0694444444443, /
373636, 1037.8777777777777, /
373933, 1038.7027777777778, /
374234, 1039.5388888888888, /
374553, 1040.425, /
374872, 1041.3111111111111, /
375185, 1042.1805555555557, /
375487, 1043.0194444444444, /
375791, 1043.8638888888888, /
376086, 1044.6833333333334, /
376384, 1045.5111111111112, /
376694, 1046.3722222222223, /
377009, 1047.2472222222223, /
377327, 1048.1305555555555, /
377635, 1048.986111111111, /
377875, 1049.6527777777778, V
378144, 1050.4, /
378449, 1051.2472222222223, /
378764, 1052.1222222222223, /
379082, 1053.0055555555555, /
379392, 1053.8666666666666, /
379700, 1054.7222222222222, /
379998, 1055.55, /
380297, 1056.3805555555555, /
380595, 1057.2083333333333, /
380898, 1058.05, /
381219, 1058.9416666666666, /
381539, 1059.8305555555555, /
381845, 1060.6805555555557, /
382139, 1061.4972222222223, /
382439, 1062.3305555555555, /
382738, 1063.161111111111, /
383053, 1064.036111111111, /
383369, 1064.9138888888888, /
383622, 1065.6166666666666, V
383907, 1066.4083333333333, /
384214, 1067.2611111111112, /
384509, 1068.0805555555555, /
384802, 1068.8944444444444, /
385106, 1069.7388888888888, /
385419, 1070.6083333333333, /
385741, 1071.5027777777777, /
386056, 1072.3777777777777, /
386355, 1073.2083333333333, /
386649, 1074.025, /
386954, 1074.8722222222223, /
387263, 1075.7305555555556, /
387573, 1076.5916666666667, /
387888, 1077.4666666666667, /
388198, 1078.3277777777778, /
388502, 1079.1722222222222, /
388801, 1080.0027777777777, /
389096, 1080.8222222222223, /
389396, 1081.6555555555556, /
389720, 1082.5555555555557, /
389976, 1083.2666666666667, V
390267, 1084.075, /
390568, 1084.911111111111, /
390867, 1085.7416666666666, /
391165, 1086.5694444444443, /
391470, 1087.4166666666667, /
391780, 1088.2777777777778, /
392090, 1089.138888888889, /
392408, 1090.0222222222221, /
392717, 1090.8805555555555, /
393013, 1091.7027777777778, /
393305, 1092.513888888889, /
393607, 1093.3527777777779, /
393919, 1094.2194444444444, /
394241, 1095.1138888888888, /
394554, 1095.9833333333333, /
394857, 1096.825, /
395158, 1097.661111111111, /
395459, 1098.4972222222223, /
395760, 1099.3333333333333, /
396067, 1100.1861111111111, /
396382, 1101.0611111111111, /
396696, 1101.9333333333334, /
397007, 1102.7972222222222, /
397302, 1103.6166666666666, /
397594, 1104.4277777777777, /
397897, 1105.2694444444444, /
398214, 1106.15, /
398535, 1107.0416666666667, /
398786, 1107.7388888888888, V
399070, 1108.5277777777778, /
399368, 1109.3555555555556, /
399666, 1110.1833333333334, /
399965, 1111.013888888889, /
400270, 1111.861111111111, /
400583, 1112.7305555555556, /
400909, 1113.6361111111112, /
401217, 1114.4916666666666, /
401510, 1115.3055555555557, /
401806, 1116.1277777777777, /
402103, 1116.9527777777778, /
402414, 1117.8166666666666, /
402733, 1118.7027777777778, /
403048, 1119.5777777777778, /
403357, 1120.4361111111111, /
403664, 1121.2888888888888, /
403960, 1122.111111111111, /
404253, 1122.925, /
404558, 1123.7722222222221, /
404870, 1124.638888888889, /
405141, 1125.3916666666667, V
405433, 1126.2027777777778, /
405734, 1127.0388888888888, /
406024, 1127.8444444444444, /
406329, 1128.6916666666666, /
406634, 1129.5388888888888, /
406948, 1130.411111111111, /
407260, 1131.2777777777778, /
407572, 1132.1444444444444, /
407878, 1132.9944444444445, /
408178, 1133.8277777777778, /
408472, 1134.6444444444444, /
408769, 1135.4694444444444, /
408995, 1136.0972222222222, V
409296, 1136.9333333333334, /
409612, 1137.8111111111111, /
409913, 1138.6472222222221, /
410213, 1139.4805555555556, /
410508, 1140.3, /
410811, 1141.1416666666667, /
411121, 1142.0027777777777, /
411433, 1142.8694444444445, /
411749, 1143.7472222222223, /
412002, 1144.45, V
412276, 1145.2111111111112, /
412566, 1146.0166666666667, /
412863, 1146.8416666666667, /
413166, 1147.6833333333334, /
413483, 1148.5638888888889, /
413806, 1149.4611111111112, /
414118, 1150.3277777777778, /
414415, 1151.1527777777778, /
414718, 1151.9944444444445, /
415017, 1152.825, /
415321, 1153.6694444444445, /
415632, 1154.5333333333333, /
415948, 1155.411111111111, /
416190, 1156.0833333333333, V
416475, 1156.875, /
416771, 1157.6972222222223, /
417064, 1158.5111111111112, /
417364, 1159.3444444444444, /
417685, 1160.236111111111, /
418003, 1161.1194444444445, /
418311, 1161.975, /
418617, 1162.825, /
418913, 1163.6472222222221, /
419154, 1164.3166666666666, V
419433, 1165.0916666666667, /
419740, 1165.9444444444443, /
420050, 1166.8055555555557, /
420372, 1167.7, /
420681, 1168.5583333333334, /
420977, 1169.3805555555555, /
421272, 1170.2, /
421571, 1171.0305555555556, /
421881, 1171.8916666666667, /
422147, 1172.6305555555555, V
422437, 1173.4361111111111, /
422746, 1174.2944444444445, /
423051, 1175.1416666666667, /
423351, 1175.975, /
423649, 1176.8027777777777, /
423949, 1177.6361111111112, /
424264, 1178.5111111111112, /
424578, 1179.3833333333334, /
424896, 1180.2666666666667, /
425197, 1181.1027777777779, /
425490, 1181.9166666666667, /
425721, 1182.5583333333334, V
426008, 1183.3555555555556, /
426324, 1184.2333333333333, /
426636, 1185.1, /
426950, 1185.9722222222222, /
427255, 1186.8194444444443, /
427555, 1187.6527777777778, /
427853, 1188.4805555555556, /
428151, 1189.3083333333334, /
428458, 1190.161111111111, /
428784, 1191.0666666666666, /
429099, 1191.9416666666666, /
429400, 1192.7777777777778, /
429696, 1193.6, /
429993, 1194.425, /
430296, 1195.2666666666667, /
430612, 1196.1444444444444, /
430927, 1197.0194444444444, /
431238, 1197.8833333333334, /
431494, 1198.5944444444444, V
431788, 1199.411111111111, /
432083, 1200.2305555555556, /
432377, 1201.0472222222222, /
432684, 1201.9, /
433003, 1202.786111111111, /
433324, 1203.6777777777777, /
433631, 1204.5305555555556, /
433926, 1205.35, /
434230, 1206.1944444444443, /
434450, 1206.8055555555557, V
434784, 1207.7333333333333, /
435096, 1208.6, /
435412, 1209.4777777777779, /
435724, 1210.3444444444444, /
436028, 1211.1888888888889, /
436321, 1212.0027777777777, /
436614, 1212.8166666666666, /
436922, 1213.6722222222222, /
437242, 1214.5611111111111, /
437559, 1215.4416666666666, /
437866, 1216.2944444444445, /
438168, 1217.1333333333334, /
438466, 1217.9611111111112, /
438767, 1218.7972222222222, /
439070, 1219.638888888889, /
439379, 1220.4972222222223, /
439697, 1221.3805555555555, /
440015, 1222.263888888889, /
440316, 1223.1, /
440608, 1223.911111111111, /
440906, 1224.7388888888888, /
441210, 1225.5833333333333, /
441526, 1226.4611111111112, /
441843, 1227.3416666666667, /
442154, 1228.2055555555555, /
442459, 1229.0527777777777, /
442761, 1229.8916666666667, /
443059, 1230.7194444444444, /
443358, 1231.55, /
443672, 1232.4222222222222, /
443987, 1233.2972222222222, /
444305, 1234.1805555555557, /
444606, 1235.0166666666667, /
444897, 1235.825, /
445195, 1236.6527777777778, /
445504, 1237.5111111111112, /
445821, 1238.3916666666667, /
446134, 1239.2611111111112, /
446448, 1240.1333333333334, /
446751, 1240.975, /
447030, 1241.75, ~
447051, 1241.8083333333334, /
447346, 1242.6277777777777, /
447643, 1243.4527777777778, /
447756, 1243.7666666666667, ~
447958, 1244.3277777777778, /
448281, 1245.225, /
448596, 1246.1, /
448894, 1246.9277777777777, /
449190, 1247.75, /
449485, 1248.5694444444443, /
449790, 1249.4166666666667, /
450104, 1250.2888888888888, /
450420, 1251.1666666666667, /
450734, 1252.0388888888888, /
451048, 1252.911111111111, /
451343, 1253.7305555555556, /
451633, 1254.536111111111, /
451934, 1255.3722222222223, /
452243, 1256.2305555555556, /
452563, 1257.1194444444445, /
452880, 1258.0, /
453184, 1258.8444444444444, /
453479, 1259.6638888888888, /
453784, 1260.5111111111112, /
454086, 1261.35, /
454394, 1262.2055555555555, /
454710, 1263.0833333333333, /
454979, 1263.8305555555555, V
455284, 1264.6777777777777, /
455588, 1265.5222222222221, /
455881, 1266.3361111111112, /
456176, 1267.1555555555556, /
456489, 1268.025, /
456809, 1268.9138888888888, /
457122, 1269.7833333333333, /
457425, 1270.625, /
457726, 1271.4611111111112, /
458026, 1272.2944444444445, /
458330, 1273.138888888889, /
458636, 1273.9888888888888, /
458948, 1274.8555555555556, /
459268, 1275.7444444444445, /
459578, 1276.6055555555556, /
459875, 1277.4305555555557, /
460167, 1278.2416666666666, /
460468, 1279.0777777777778, /
460774, 1279.9277777777777, /
461096, 1280.8222222222223, /
461411, 1281.6972222222223, /
461716, 1282.5444444444445, /
462019, 1283.3861111111112, /
462321, 1284.225, /
462621, 1285.0583333333334, /
462925, 1285.9027777777778, /
463242, 1286.7833333333333, /
463556, 1287.6555555555556, /
463869, 1288.525, /
464166, 1289.35, /
464458, 1290.161111111111, /
464758, 1290.9944444444445, /
465073, 1291.8694444444445, /
465391, 1292.7527777777777, /
465703, 1293.6194444444445, /
466014, 1294.4833333333333, /
466313, 1295.3138888888889, /
466614, 1296.15, /
466911, 1296.975, /
467214, 1297.8166666666666, /
467530, 1298.6944444444443, /
467855, 1299.5972222222222, /
468165, 1300.4583333333333, /
468458, 1301.2722222222221, /
468755, 1302.0972222222222, /
469052, 1302.9222222222222, /
469360, 1303.7777777777778, /
469677, 1304.6583333333333, /
469992, 1305.5333333333333, /
470304, 1306.4, /
470613, 1307.2583333333334, /
470907, 1308.075, /
471200, 1308.888888888889, /
471504, 1309.7333333333333, /
471816, 1310.6, /
472137, 1311.4916666666666, /
472449, 1312.3583333333333, /
472749, 1313.1916666666666, /
473043, 1314.0083333333334, /
473350, 1314.861111111111, /
473656, 1315.7111111111112, /
473968, 1316.5777777777778, /
474284, 1317.4555555555555, /
474595, 1318.3194444444443, /
474902, 1319.1722222222222, /
475196, 1319.9888888888888, /
475491, 1320.8083333333334, /
475795, 1321.6527777777778, /
476116, 1322.5444444444445, /
476433, 1323.425, /
476739, 1324.275, /
477039, 1325.1083333333333, /
477334, 1325.9277777777777, /
477637, 1326.7694444444444, /
477942, 1327.6166666666666, /
478256, 1328.4888888888888, /
478572, 1329.3666666666666, /
478892, 1330.2555555555555, /
479192, 1331.088888888889, /
479481, 1331.8916666666667, /
479779, 1332.7194444444444, /
480080, 1333.5555555555557, /
480398, 1334.4388888888889, /
480715, 1335.3194444444443, /
481025, 1336.1805555555557, /
481328, 1337.0222222222221, /
481633, 1337.8694444444445, /
481931, 1338.6972222222223, /
482230, 1339.5277777777778, /
482545, 1340.4027777777778, /
482858, 1341.2722222222221, /
483175, 1342.1527777777778, /
483480, 1343.0, /
483773, 1343.8138888888889, /
484066, 1344.6277777777777, /
484378, 1345.4944444444445, /
484692, 1346.3666666666666, /
485003, 1347.2305555555556, /
485316, 1348.1, /
485620, 1348.9444444444443, /
485921, 1349.7805555555556, /
486219, 1350.6083333333333, /
486519, 1351.4416666666666, /
486830, 1352.3055555555557, /
487155, 1353.2083333333333, /
487468, 1354.0777777777778, /
487767, 1354.9083333333333, /
488062, 1355.7277777777779, /
488356, 1356.5444444444445, /
488660, 1357.388888888889, /
488975, 1358.263888888889, /
489291, 1359.1416666666667, /
489602, 1360.0055555555555, /
489915, 1360.875, /
490212, 1361.7, /
490504, 1362.5111111111112, /
490804, 1363.3444444444444, /
491114, 1364.2055555555555, /
491433, 1365.0916666666667, /
491752, 1365.9777777777779, /
492057, 1366.825, /
492348, 1367.6333333333334, /
492650, 1368.4722222222222, /
492952, 1369.3111111111111, /
493263, 1370.175, /
493578, 1371.05, /
493892, 1371.9222222222222, /
494202, 1372.7833333333333, /
494507, 1373.6305555555555, /
494800, 1374.4444444444443, /
495095, 1375.263888888889, /
495409, 1376.1361111111112, /
495730, 1377.0277777777778, /
496043, 1377.8972222222221, /
496344, 1378.7333333333333, /
496642, 1379.5611111111111, /
496940, 1380.388888888889, /
497244, 1381.2333333333333, /
497553, 1382.0916666666667, /
497789, 1382.7472222222223, V
498081, 1383.5583333333334, /
498401, 1384.4472222222223, /
498698, 1385.2722222222221, /
498988, 1386.0777777777778, /
499287, 1386.9083333333333, /
499591, 1387.7527777777777, /
499909, 1388.6361111111112, /
500228, 1389.5222222222221, /
500537, 1390.3805555555555, /
500835, 1391.2083333333333, /
501139, 1392.0527777777777, /
501439, 1392.8861111111112, /
501741, 1393.725, /
502057, 1394.6027777777779, /
502371, 1395.475, /
502687, 1396.3527777777779, /
502991, 1397.1972222222223, /
503237, 1397.8805555555555, V
503505, 1398.625, /
503813, 1399.4805555555556, /
504130, 1400.361111111111, /
504446, 1401.2388888888888, /
504755, 1402.0972222222222, /
505060, 1402.9444444444443, /
505359, 1403.775, /
505662, 1404.6166666666666, /
505962, 1405.45, /
506239, 1406.2194444444444, V
506553, 1407.0916666666667, /
506872, 1407.9777777777779, /
507176, 1408.8222222222223, /
507468, 1409.6333333333334, /
507764, 1410.4555555555555, /
508065, 1411.2916666666667, /
508381, 1412.1694444444445, /
508695, 1413.0416666666667, /
509005, 1413.9027777777778, /
509219, 1414.4972222222223, V
509524, 1415.3444444444444, /
509820, 1416.1666666666667, /
510115, 1416.986111111111, /
510422, 1417.838888888889, /
510735, 1418.7083333333333, /
511008, 1419.4666666666667, V
511298, 1420.2722222222221, /
511597, 1421.1027777777779, /
511843, 1421.786111111111, V
512120, 1422.5555555555557, /
512424, 1423.4, /
512735, 1424.263888888889, /
512974, 1424.9277777777777, V
513264, 1425.7333333333333, /
513572, 1426.588888888889, /
513877, 1427.4361111111111, /
514098, 1428.05, V
514372, 1428.8111111111111, /
514634, 1429.5388888888888, V
514928, 1430.3555555555556, /
515244, 1431.2333333333333, /
515554, 1432.0944444444444, /
515855, 1432.9305555555557, /
516149, 1433.7472222222223, /
516448, 1434.5777777777778, /
516755, 1435.4305555555557, /
517067, 1436.2972222222222, /
517380, 1437.1666666666667, /
517701, 1438.0583333333334, /
518007, 1438.9083333333333, /
518301, 1439.725, /
518595, 1440.5416666666667, /
518895, 1441.375, /
519210, 1442.25, /
519531, 1443.1416666666667, /
519842, 1444.0055555555555, /
520143, 1444.8416666666667, /
520445, 1445.6805555555557, /
520743, 1446.5083333333334, /
521041, 1447.3361111111112, /
521353, 1448.2027777777778, /
521671, 1449.0861111111112, /
521988, 1449.9666666666667, /
522299, 1450.8305555555555, /
522595, 1451.6527777777778, /
522882, 1452.45, /
523188, 1453.3, /
523502, 1454.1722222222222, /
523817, 1455.0472222222222, /
524126, 1455.9055555555556, /
524432, 1456.7555555555555, /
524731, 1457.5861111111112, /
525035, 1458.4305555555557, /
525332, 1459.2555555555555, /
525639, 1460.1083333333333, /
525964, 1461.0111111111112, /
526281, 1461.8916666666667, /
526585, 1462.736111111111, /
526879, 1463.5527777777777, /
527174, 1464.3722222222223, /
527475, 1465.2083333333333, /
527789, 1466.0805555555555, /
528103, 1466.9527777777778, /
528413, 1467.8138888888889, /
528724, 1468.6777777777777, /
529027, 1469.5194444444444, /
529324, 1470.3444444444444, /
529620, 1471.1666666666667, /
529932, 1472.0333333333333, /
530249, 1472.9138888888888, /
530568, 1473.8, /
530874, 1474.65, /
531167, 1475.463888888889, /
531464, 1476.2888888888888, /
531767, 1477.1305555555555, /
532077, 1477.9916666666666, /
532391, 1478.8638888888888, /
532707, 1479.7416666666666, /
533014, 1480.5944444444444, /
533318, 1481.4388888888889, /
533615, 1482.263888888889, /
533911, 1483.0861111111112, /
534221, 1483.9472222222223, /
534545, 1484.8472222222222, /
534860, 1485.7222222222222, /
535162, 1486.5611111111111, /
535458, 1487.3833333333334, /
535751, 1488.1972222222223, /
536055, 1489.0416666666667, /
536362, 1489.8944444444444, /
536679, 1490.775, /
536995, 1491.6527777777778, /
537313, 1492.536111111111, /
537611, 1493.3638888888888, /
537903, 1494.175, /
538203, 1495.0083333333334, /
538508, 1495.8555555555556, /
538828, 1496.7444444444445, /
539145, 1497.625, /
539453, 1498.4805555555556, /
539748, 1499.3, /
540052, 1500.1444444444444, /
540351, 1500.975, /
540653, 1501.8138888888889, /
540882, 1502.45, V
541179, 1503.275, /
541494, 1504.15, /
541804, 1505.0111111111112, /
542098, 1505.8277777777778, /
542388, 1506.6333333333334, /
542695, 1507.486111111111, /
542975, 1508.263888888889, V
543286, 1509.1277777777777, /
543594, 1509.9833333333333, /
543901, 1510.8361111111112, /
544196, 1511.6555555555556, /
544497, 1512.4916666666666, /
544796, 1513.3222222222223, /
545106, 1514.1833333333334, /
545428, 1515.0777777777778, /
545749, 1515.9694444444444, /
546057, 1516.825, /
546349, 1517.6361111111112, /
546644, 1518.4555555555555, /
546944, 1519.2888888888888, /
547258, 1520.161111111111, /
547572, 1521.0333333333333, /
547884, 1521.9, /
548191, 1522.7527777777777, /
548495, 1523.5972222222222, /
548792, 1524.4222222222222, /
549089, 1525.2472222222223, /
549402, 1526.1166666666666, /
549720, 1527.0, /
550038, 1527.8833333333334, /
550342, 1528.7277777777779, /
550636, 1529.5444444444445, /
550932, 1530.3666666666666, /
551238, 1531.2166666666667, /
551549, 1532.0805555555555, /
551861, 1532.9472222222223, /
552175, 1533.8194444444443, /
552480, 1534.6666666666667, /
552785, 1535.513888888889, /
553082, 1536.338888888889, /
553378, 1537.161111111111, /
553690, 1538.0277777777778, /
554014, 1538.9277777777777, /
554239, 1539.5527777777777, V
554520, 1540.3333333333333, /
554818, 1541.161111111111, /
555111, 1541.975, /
555412, 1542.8111111111111, /
555718, 1543.661111111111, /
556032, 1544.5333333333333, /
556346, 1545.4055555555556, /
556667, 1546.2972222222222, /
556969, 1547.1361111111112, /
557259, 1547.9416666666666, /
557556, 1548.7666666666667, /
557861, 1549.6138888888888, /
558181, 1550.5027777777777, /
558459, 1551.275, V
558746, 1552.0722222222223, /
559045, 1552.9027777777778, /
559346, 1553.7388888888888, /
559643, 1554.5638888888889, /
559942, 1555.3944444444444, /
560253, 1556.2583333333334, /
560520, 1557.0, V
560833, 1557.8694444444445, /
561145, 1558.736111111111, /
561442, 1559.5611111111111, /
561733, 1560.3694444444445, /
562036, 1561.2111111111112, /
562351, 1562.0861111111112, /
562667, 1562.963888888889, /
562976, 1563.8222222222223, /
563283, 1564.675, /
563581, 1565.5027777777777, /
563883, 1566.3416666666667, /
564180, 1567.1666666666667, /
564484, 1568.0111111111112, /
564808, 1568.911111111111, /
565129, 1569.8027777777777, /
565436, 1570.6555555555556, /
565731, 1571.475, /
566027, 1572.2972222222222, /
566325, 1573.125, /
566638, 1573.9944444444445, /
566951, 1574.8638888888888, /
567185, 1575.513888888889, V
567473, 1576.3138888888889, /
567781, 1577.1694444444445, /
568077, 1577.9916666666666, /
568371, 1578.8083333333334, /
568676, 1579.6555555555556, /
568917, 1580.325, V
569213, 1581.1472222222221, /
569533, 1582.036111111111, /
569837, 1582.8805555555555, /
570129, 1583.6916666666666, /
570428, 1584.5222222222221, /
570650, 1585.138888888889, V
570937, 1585.9361111111111, /
571249, 1586.8027777777777, /
571564, 1587.6777777777777, /
571871, 1588.5305555555556, /
572174, 1589.3722222222223, /
572410, 1590.0277777777778, V
572687, 1590.7972222222222, /
572989, 1591.6361111111112, /
573313, 1592.536111111111, /
573630, 1593.4166666666667, /
573937, 1594.2694444444444, /
574236, 1595.1, /
574528, 1595.911111111111, /
574828, 1596.7444444444445, /
575137, 1597.6027777777779, /
575451, 1598.475, /
575762, 1599.338888888889, /
576081, 1600.225, /
576382, 1601.0611111111111, /
576677, 1601.8805555555555, /
576974, 1602.7055555555555, /
577279, 1603.5527777777777, /
577597, 1604.4361111111111, /
577918, 1605.3277777777778, /
578228, 1606.1888888888889, /
578525, 1607.013888888889, /
578824, 1607.8444444444444, /
579124, 1608.6777777777777, /
579427, 1609.5194444444444, /
579737, 1610.3805555555555, /
580056, 1611.2666666666667, /
580372, 1612.1444444444444, /
580681, 1613.0027777777777, /
580976, 1613.8222222222223, /
581268, 1614.6333333333334, /
581576, 1615.4888888888888, /
581895, 1616.375, /
582210, 1617.25, /
582517, 1618.1027777777779, /
582823, 1618.9527777777778, /
583119, 1619.775, /
583420, 1620.611111111111, /
583720, 1621.4444444444443, /
584028, 1622.3, /
584351, 1623.1972222222223, /
584671, 1624.0861111111112, /
584975, 1624.9305555555557, /
585267, 1625.7416666666666, /
585564, 1626.5666666666666, /
585867, 1627.4083333333333, /
586185, 1628.2916666666667, /
586497, 1629.1583333333333, /
586805, 1630.013888888889, /
587113, 1630.8694444444445, /
587413, 1631.7027777777778, /
587710, 1632.5277777777778, /
588008, 1633.3555555555556, /
588322, 1634.2277777777779, /
588641, 1635.1138888888888, /
588960, 1636.0, /
589263, 1636.8416666666667, /
589557, 1637.6583333333333, /
589855, 1638.486111111111, /
590161, 1639.3361111111112, /
590473, 1640.2027777777778, /
590785, 1641.0694444444443, /
591098, 1641.9388888888889, /
591404, 1642.7888888888888, /
591706, 1643.6277777777777, /
592001, 1644.4472222222223, /
592298, 1645.2722222222221, /
592614, 1646.15, /
592937, 1647.0472222222222, /
593250, 1647.9166666666667, /
593551, 1648.7527777777777, /
593850, 1649.5833333333333, /
594145, 1650.4027777777778, /
594449, 1651.2472222222223, /
594757, 1652.1027777777779, /
595068, 1652.9666666666667, /
595386, 1653.85, /
595696, 1654.7111111111112, /
595993, 1655.536111111111, /
596285, 1656.3472222222222, /
596587, 1657.1861111111111, /
596899, 1658.0527777777777, /
597223, 1658.9527777777778, /
597535, 1659.8194444444443, /
597838, 1660.661111111111, /
598137, 1661.4916666666666, /
598436, 1662.3222222222223, /
598735, 1663.1527777777778, /
599040, 1664.0, /
599358, 1664.8833333333334, /
599673, 1665.7583333333334, /
599986, 1666.6277777777777, /
600283, 1667.4527777777778, /
600576, 1668.2666666666667, /
600878, 1669.1055555555556, /
601195, 1669.986111111111, /
601514, 1670.8722222222223, /
601822, 1671.7277777777779, /
602130, 1672.5833333333333, /
602426, 1673.4055555555556, /
602726, 1674.2388888888888, /
603022, 1675.0611111111111, /
603325, 1675.9027777777778, /
603646, 1676.7944444444445, /
603968, 1677.6888888888889, /
604276, 1678.5444444444445, /
604571, 1679.3638888888888, /
604869, 1680.1916666666666, /
605168, 1681.0222222222221, /
605480, 1681.888888888889, /
605794, 1682.7611111111112, /
606106, 1683.6277777777777, /
606415, 1684.486111111111, /
606720, 1685.3333333333333, /
607015, 1686.1527777777778, /
607309, 1686.9694444444444, /
607616, 1687.8222222222223, /
607931, 1688.6972222222223, /
608253, 1689.5916666666667, /
608563, 1690.4527777777778, /
608862, 1691.2833333333333, /
609158, 1692.1055555555556, /
609464, 1692.9555555555555, /
609771, 1693.8083333333334, /
610082, 1694.6722222222222, /
610396, 1695.5444444444445, /
610703, 1696.3972222222221, /
611006, 1697.2388888888888, /
611304, 1698.0666666666666, /
611601, 1698.8916666666667, /
611904, 1699.7333333333333, /
612231, 1700.6416666666667, /
612548, 1701.5222222222221, /
612853, 1702.3694444444445, /
613152, 1703.2, /
613447, 1704.0194444444444, /
613748, 1704.8555555555556, /
614055, 1705.7083333333333, /
614369, 1706.5805555555555, /
614681, 1707.4472222222223, /
615000, 1708.3333333333333, /
615299, 1709.1638888888888, /
615590, 1709.9722222222222, /
615890, 1710.8055555555557, /
616195, 1711.6527777777778, /
616515, 1712.5416666666667, /
616837, 1713.4361111111111, /
617147, 1714.2972222222222, /
617444, 1715.1222222222223, /
617745, 1715.9583333333333, /
618043, 1716.786111111111, /
618346, 1717.6277777777777, /
618657, 1718.4916666666666, /
618886, 1719.1277777777777, V
619177, 1719.9361111111111, /
619487, 1720.7972222222222, /
619781, 1721.6138888888888, /
620074, 1722.4277777777777, /
620378, 1723.2722222222221, /
620698, 1724.161111111111, /
621018, 1725.05, /
621326, 1725.9055555555556, /
621633, 1726.7583333333334, /
621929, 1727.5805555555555, /
622228, 1728.411111111111, /
622526, 1729.2388888888888, /
622833, 1730.0916666666667, /
623062, 1730.7277777777779, V
623367, 1731.575, /
623675, 1732.4305555555557, /
623968, 1733.2444444444445, /
624266, 1734.0722222222223, /
624563, 1734.8972222222221, /
624874, 1735.7611111111112, /
625192, 1736.6444444444444, /
625425, 1737.2916666666667, V
625710, 1738.0833333333333, /
626018, 1738.9388888888889, /
626314, 1739.7611111111112, /
626609, 1740.5805555555555, /
626909, 1741.4138888888888, /
627223, 1742.286111111111, /
627542, 1743.1722222222222, /
627772, 1743.8111111111111, V
628055, 1744.5972222222222, /
628353, 1745.425, /
628651, 1746.2527777777777, /
628957, 1747.1027777777779, /
629267, 1747.963888888889, /
629580, 1748.8333333333333, /
629893, 1749.7027777777778, /
630199, 1750.5527777777777, /
630501, 1751.3916666666667, /
630796, 1752.2111111111112, /
631091, 1753.0305555555556, /
631400, 1753.888888888889, /
631726, 1754.7944444444445, /
632043, 1755.675, /
632346, 1756.5166666666667, /
632599, 1757.2194444444444, V
632871, 1757.975, /
633173, 1758.8138888888889, /
633480, 1759.6666666666667, /
633792, 1760.5333333333333, /
634105, 1761.4027777777778, /
634426, 1762.2944444444445, /
634724, 1763.1222222222223, /
635015, 1763.9305555555557, /
635313, 1764.7583333333334, /
635616, 1765.6, /
635936, 1766.4888888888888, /
636185, 1767.1805555555557, V
636476, 1767.9888888888888, /
636775, 1768.8194444444443, /
637078, 1769.661111111111, /
637375, 1770.486111111111, /
637673, 1771.3138888888889, /
637984, 1772.1777777777777, /
638298, 1773.05, /
638615, 1773.9305555555557, /
638925, 1774.7916666666667, /
639220, 1775.611111111111, /
639511, 1776.4194444444445, /
639818, 1777.2722222222221, /
640133, 1778.1472222222221, /
640449, 1779.025, /
640759, 1779.8861111111112, /
641064, 1780.7333333333333, /
641365, 1781.5694444444443, /
641665, 1782.4027777777778, /
641962, 1783.2277777777779, /
642266, 1784.0722222222223, /
642591, 1784.975, /
642906, 1785.85, /
643210, 1786.6944444444443, /
643505, 1787.513888888889, /
643802, 1788.338888888889, /
644104, 1789.1777777777777, /
644421, 1790.0583333333334, /
644737, 1790.9361111111111, /
645045, 1791.7916666666667, /
645358, 1792.661111111111, /
645656, 1793.4888888888888, /
645949, 1794.3027777777777, /
646161, 1794.8916666666667, V
646445, 1795.6805555555557, /
646757, 1796.5472222222222, /
647078, 1797.4388888888889, /
647390, 1798.3055555555557, /
647624, 1798.9555555555555, V
647895, 1799.7083333333333, /
648200, 1800.5555555555557, /
648503, 1801.3972222222221, /
648815, 1802.263888888889, /
649129, 1803.1361111111112, /
649441, 1804.0027777777777, /
649748, 1804.8555555555556, /
