23, 0.06388888888888888, +
88, 0.24444444444444444, N
442, 1.2277777777777779, N
789, 2.191666666666667, N
1155, 3.2083333333333335, N
1493, 4.147222222222222, N
1821, 5.058333333333334, N
2157, 5.991666666666666, N
2517, 6.991666666666666, N
2889, 8.025, N
3238, 8.994444444444444, N
3593, 9.980555555555556, N
3924, 10.9, N
4105, 11.402777777777779, V
4197, 11.658333333333333, x
4602, 12.783333333333333, N
4971, 13.808333333333334, N
5350, 14.86111111111111, N
5715, 15.875, N
6115, 16.98611111111111, N
6479, 17.997222222222224, N
6886, 19.127777777777776, N
7287, 20.241666666666667, N
7687, 21.352777777777778, N
8056, 22.377777777777776, N
8432, 23.42222222222222, N
8804, 24.455555555555556, N
9196, 25.544444444444444, N
9586, 26.627777777777776, N
9924, 27.566666666666666, ~
9963, 27.675, N
10325, 28.680555555555557, N
10519, 29.219444444444445, ~
10696, 29.711111111111112, N
10876, 30.211111111111112, V
11000, 30.555555555555557, x
11453, 31.81388888888889, N
11819, 32.830555555555556, N
12174, 33.81666666666667, N
12509, 34.74722222222222, N
12856, 35.71111111111111, N
13236, 36.766666666666666, N
13644, 37.9, N
14073, 39.09166666666667, N
14467, 40.18611111111111, N
14847, 41.24166666666667, N
15222, 42.28333333333333, N
15620, 43.388888888888886, N
16018, 44.49444444444445, N
16403, 45.56388888888889, N
16788, 46.63333333333333, N
17161, 47.669444444444444, N
17534, 48.705555555555556, N
17932, 49.81111111111111, N
18327, 50.90833333333333, N
18685, 51.90277777777778, N
19045, 52.90277777777778, N
19416, 53.93333333333333, N
19802, 55.00555555555555, N
20193, 56.09166666666667, N
20586, 57.18333333333333, N
20942, 58.172222222222224, N
21308, 59.18888888888889, N
21676, 60.21111111111111, N
22054, 61.26111111111111, N
22427, 62.297222222222224, N
22794, 63.31666666666667, N
23189, 64.41388888888889, N
23610, 65.58333333333333, N
24037, 66.76944444444445, N
24454, 67.92777777777778, N
24850, 69.02777777777777, N
25232, 70.08888888888889, N
25617, 71.15833333333333, N
25991, 72.19722222222222, N
26386, 73.29444444444445, N
26787, 74.40833333333333, N
27181, 75.50277777777778, N
27545, 76.51388888888889, N
27926, 77.57222222222222, N
28313, 78.64722222222223, N
28717, 79.76944444444445, N
29100, 80.83333333333333, N
29455, 81.81944444444444, N
29796, 82.76666666666667, N
30150, 83.75, N
30545, 84.84722222222223, N
30976, 86.04444444444445, N
31420, 87.27777777777777, N
31855, 88.48611111111111, N
32262, 89.61666666666666, N
32698, 90.82777777777778, N
33121, 92.00277777777778, N
33513, 93.09166666666667, N
33889, 94.1361111111111, N
34259, 95.16388888888889, N
34625, 96.18055555555556, N
35018, 97.27222222222223, N
35414, 98.37222222222222, N
35764, 99.34444444444445, N
36115, 100.31944444444444, N
36473, 101.31388888888888, N
36849, 102.35833333333333, N
37297, 103.60277777777777, N
37781, 104.94722222222222, N
38198, 106.10555555555555, N
38590, 107.19444444444444, N
38991, 108.30833333333334, N
39388, 109.41111111111111, N
39780, 110.5, N
40170, 111.58333333333333, N
40538, 112.60555555555555, N
40915, 113.65277777777777, N
41308, 114.74444444444444, N
41701, 115.83611111111111, N
42092, 116.92222222222222, N
42468, 117.96666666666667, N
42839, 118.99722222222222, N
43221, 120.05833333333334, N
43618, 121.16111111111111, N
44008, 122.24444444444444, N
44391, 123.30833333333334, N
44777, 124.38055555555556, N
45147, 125.40833333333333, N
45518, 126.43888888888888, N
45906, 127.51666666666667, N
46305, 128.625, N
46506, 129.18333333333334, ~
46660, 129.61111111111111, N
47006, 130.57222222222222, N
47352, 131.53333333333333, N
47727, 132.575, N
48194, 133.87222222222223, N
48638, 135.10555555555555, N
49009, 136.13611111111112, N
49153, 136.5361111111111, ~
49393, 137.20277777777778, N
49480, 137.44444444444446, ~
49781, 138.28055555555557, N
50177, 139.38055555555556, N
50545, 140.40277777777777, N
50914, 141.42777777777778, N
51267, 142.40833333333333, N
51623, 143.3972222222222, N
52009, 144.46944444444443, N
52396, 145.54444444444445, N
52775, 146.59722222222223, N
53149, 147.63611111111112, N
53501, 148.61388888888888, N
53865, 149.625, N
54260, 150.72222222222223, N
54662, 151.8388888888889, N
55039, 152.88611111111112, N
55411, 153.91944444444445, N
55782, 154.95, N
56173, 156.0361111111111, N
56565, 157.125, N
56968, 158.24444444444444, N
57329, 159.24722222222223, N
57712, 160.3111111111111, N
58080, 161.33333333333334, N
58484, 162.45555555555555, N
58867, 163.51944444444445, N
59289, 164.69166666666666, N
59649, 165.69166666666666, N
60002, 166.67222222222222, N
60370, 167.69444444444446, N
60787, 168.8527777777778, N
61180, 169.94444444444446, N
61581, 171.05833333333334, N
61953, 172.09166666666667, N
62322, 173.11666666666667, N
62698, 174.1611111111111, N
63108, 175.3, N
63491, 176.36388888888888, N
63872, 177.42222222222222, N
64247, 178.4638888888889, N
64615, 179.48611111111111, N
64995, 180.54166666666666, N
65393, 181.6472222222222, N
65792, 182.75555555555556, N
66159, 183.775, N
66541, 184.8361111111111, N
66912, 185.86666666666667, N
67296, 186.93333333333334, N
67685, 188.01388888888889, N
68075, 189.09722222222223, N
68451, 190.14166666666668, N
68799, 191.10833333333332, N
69173, 192.1472222222222, N
69528, 193.13333333333333, N
69921, 194.225, N
70276, 195.2111111111111, N
70727, 196.4638888888889, N
71158, 197.6611111111111, N
71628, 198.96666666666667, N
72057, 200.15833333333333, N
72458, 201.2722222222222, N
72839, 202.33055555555555, N
73220, 203.38888888888889, N
73604, 204.45555555555555, N
74004, 205.56666666666666, N
74393, 206.6472222222222, N
74779, 207.71944444444443, N
75132, 208.7, N
75511, 209.75277777777777, N
75893, 210.8138888888889, N
76309, 211.96944444444443, N
76703, 213.0638888888889, N
77062, 214.0611111111111, N
77435, 215.09722222222223, N
77829, 216.19166666666666, N
78197, 217.2138888888889, N
78330, 217.58333333333334, ~
78592, 218.3111111111111, N
78977, 219.38055555555556, N
79338, 220.38333333333333, N
79724, 221.45555555555555, N
80112, 222.53333333333333, N
80492, 223.5888888888889, N
80860, 224.61111111111111, N
81217, 225.6027777777778, N
81557, 226.54722222222222, N
81901, 227.50277777777777, N
82281, 228.55833333333334, N
82675, 229.65277777777777, N
83134, 230.92777777777778, N
83545, 232.06944444444446, N
83824, 232.84444444444443, V
84360, 234.33333333333334, N
84809, 235.58055555555555, N
85225, 236.73611111111111, N
85583, 237.73055555555555, N
85966, 238.79444444444445, N
86317, 239.76944444444445, N
86710, 240.86111111111111, N
87078, 241.88333333333333, N
87466, 242.9611111111111, N
87837, 243.99166666666667, N
88216, 245.04444444444445, N
88598, 246.10555555555555, N
88987, 247.1861111111111, N
89411, 248.36388888888888, N
89517, 248.65833333333333, ~
89812, 249.4777777777778, N
90197, 250.54722222222222, N
90563, 251.5638888888889, N
90960, 252.66666666666666, N
91358, 253.7722222222222, N
91751, 254.86388888888888, N
92122, 255.89444444444445, N
92493, 256.925, N
92866, 257.9611111111111, N
93264, 259.06666666666666, N
93626, 260.0722222222222, N
94006, 261.1277777777778, N
94366, 262.1277777777778, N
94731, 263.14166666666665, N
95073, 264.09166666666664, N
95449, 265.1361111111111, N
95873, 266.31388888888887, N
96330, 267.5833333333333, N
96765, 268.7916666666667, N
97144, 269.84444444444443, N
97198, 269.99444444444447, |
97562, 271.00555555555553, N
97981, 272.1694444444444, N
98352, 273.2, N
98705, 274.18055555555554, N
99067, 275.18611111111113, N
99443, 276.23055555555555, N
99837, 277.325, N
100213, 278.36944444444447, N
100582, 279.39444444444445, N
100944, 280.4, N
101307, 281.40833333333336, N
101669, 282.4138888888889, N
102038, 283.43888888888887, N
102402, 284.45, N
102775, 285.4861111111111, N
103219, 286.71944444444443, N
103622, 287.8388888888889, N
104043, 289.0083333333333, N
104459, 290.1638888888889, N
104843, 291.23055555555555, N
105227, 292.2972222222222, N
105602, 293.3388888888889, N
105983, 294.39722222222224, N
106382, 295.50555555555553, N
106797, 296.65833333333336, N
107176, 297.7111111111111, N
107330, 298.1388888888889, V
107593, 298.86944444444447, N
107948, 299.85555555555555, N
108340, 300.94444444444446, N
108737, 302.0472222222222, N
109143, 303.175, N
109534, 304.2611111111111, N
109890, 305.25, N
110301, 306.39166666666665, N
110713, 307.5361111111111, N
111101, 308.6138888888889, N
111501, 309.725, N
111863, 310.73055555555555, N
112247, 311.7972222222222, N
112653, 312.925, N
113049, 314.025, N
113436, 315.1, N
113820, 316.1666666666667, N
114200, 317.22222222222223, N
114572, 318.25555555555553, N
114991, 319.4194444444444, N
115379, 320.4972222222222, N
115770, 321.5833333333333, N
116143, 322.61944444444447, N
116524, 323.6777777777778, N
116894, 324.7055555555556, N
117314, 325.8722222222222, N
117581, 326.6138888888889, |
117713, 326.98055555555555, N
118096, 328.0444444444444, N
118478, 329.10555555555555, N
118872, 330.2, N
119262, 331.28333333333336, N
119678, 332.43888888888887, N
120058, 333.49444444444447, N
120427, 334.51944444444445, N
120815, 335.59722222222223, N
121217, 336.7138888888889, N
121398, 337.21666666666664, |
121617, 337.825, N
122010, 338.9166666666667, N
122401, 340.0027777777778, N
122743, 340.9527777777778, N
123110, 341.97222222222223, N
123491, 343.03055555555557, N
123889, 344.1361111111111, N
124265, 345.18055555555554, N
124640, 346.22222222222223, N
124999, 347.21944444444443, N
125381, 348.28055555555557, N
125766, 349.35, N
126170, 350.47222222222223, N
126542, 351.50555555555553, N
126926, 352.5722222222222, N
127308, 353.6333333333333, N
127684, 354.6777777777778, N
128085, 355.7916666666667, N
128499, 356.94166666666666, N
128859, 357.94166666666666, N
129253, 359.0361111111111, N
129627, 360.075, N
130018, 361.1611111111111, N
130421, 362.28055555555557, N
130809, 363.35833333333335, N
131189, 364.4138888888889, N
131556, 365.43333333333334, N
131950, 366.52777777777777, N
132342, 367.6166666666667, N
132736, 368.7111111111111, N
133099, 369.71944444444443, N
133456, 370.7111111111111, N
133796, 371.65555555555557, N
134161, 372.6694444444444, N
134542, 373.72777777777776, N
134927, 374.7972222222222, N
135408, 376.1333333333333, N
135847, 377.35277777777776, N
136258, 378.49444444444447, N
136659, 379.60833333333335, N
137075, 380.7638888888889, N
137448, 381.8, N
137830, 382.8611111111111, N
138216, 383.93333333333334, N
138599, 384.9972222222222, N
139014, 386.15, N
139400, 387.22222222222223, N
139773, 388.2583333333333, N
140149, 389.3027777777778, N
140538, 390.3833333333333, N
140940, 391.5, N
141329, 392.5805555555556, N
141718, 393.6611111111111, N
142094, 394.7055555555556, N
142469, 395.7472222222222, N
142884, 396.9, N
143288, 398.02222222222224, N
143692, 399.14444444444445, N
144080, 400.22222222222223, N
144465, 401.2916666666667, N
144847, 402.35277777777776, N
145268, 403.52222222222224, N
145670, 404.6388888888889, N
146060, 405.72222222222223, N
146459, 406.8305555555556, N
146841, 407.89166666666665, N
147252, 409.03333333333336, N
147663, 410.175, N
148070, 411.30555555555554, N
148451, 412.3638888888889, N
148842, 413.45, N
149237, 414.5472222222222, N
149641, 415.6694444444444, N
150057, 416.825, N
150445, 417.90277777777777, N
150825, 418.9583333333333, N
151220, 420.05555555555554, N
151612, 421.14444444444445, N
152019, 422.275, N
152405, 423.34722222222223, N
152788, 424.4111111111111, N
153143, 425.39722222222224, N
153537, 426.4916666666667, N
153921, 427.55833333333334, N
154306, 428.6277777777778, N
154673, 429.64722222222224, N
155043, 430.675, N
155415, 431.7083333333333, N
155798, 432.77222222222224, N
156213, 433.925, N
156583, 434.9527777777778, N
156945, 435.9583333333333, N
157319, 436.9972222222222, N
157701, 438.05833333333334, N
158079, 439.10833333333335, N
158473, 440.2027777777778, N
158842, 441.22777777777776, N
159200, 442.22222222222223, N
159558, 443.21666666666664, N
159958, 444.3277777777778, N
160448, 445.68888888888887, N
160892, 446.9222222222222, N
161290, 448.02777777777777, N
161684, 449.1222222222222, N
162001, 450.0027777777778, ~
162064, 450.1777777777778, N
162463, 451.2861111111111, N
162838, 452.3277777777778, N
163040, 452.8888888888889, ~
163229, 453.4138888888889, N
163582, 454.39444444444445, N
163942, 455.39444444444445, N
164329, 456.46944444444443, N
164722, 457.56111111111113, N
165111, 458.64166666666665, N
165493, 459.7027777777778, N
165870, 460.75, N
166247, 461.7972222222222, N
166630, 462.8611111111111, N
167033, 463.98055555555555, N
167119, 464.21944444444443, |
167420, 465.05555555555554, N
167784, 466.06666666666666, N
168145, 467.06944444444446, N
168523, 468.11944444444447, N
168905, 469.18055555555554, N
169304, 470.2888888888889, N
169686, 471.35, N
170047, 472.35277777777776, N
170425, 473.40277777777777, N
170801, 474.4472222222222, N
171188, 475.52222222222224, N
171581, 476.6138888888889, N
171955, 477.65277777777777, N
172326, 478.68333333333334, N
172683, 479.675, N
173070, 480.75, N
173452, 481.81111111111113, N
173824, 482.84444444444443, N
174185, 483.84722222222223, N
174536, 484.8222222222222, N
174874, 485.7611111111111, N
175254, 486.81666666666666, N
175679, 487.9972222222222, N
176132, 489.25555555555553, N
176528, 490.35555555555555, N
176909, 491.4138888888889, N
177286, 492.4611111111111, N
177682, 493.56111111111113, N
178074, 494.65, N
178437, 495.65833333333336, N
178786, 496.6277777777778, N
179155, 497.65277777777777, N
179500, 498.6111111111111, N
179844, 499.56666666666666, N
179895, 499.7083333333333, ~
180041, 500.1138888888889, V
180184, 500.5111111111111, x
180621, 501.725, F
180712, 501.97777777777776, ~
181027, 502.85277777777776, N
181400, 503.8888888888889, N
181790, 504.97222222222223, N
182158, 505.99444444444447, N
182556, 507.1, N
182920, 508.1111111111111, N
183273, 509.09166666666664, N
183648, 510.1333333333333, N
184038, 511.21666666666664, N
184418, 512.2722222222222, N
184796, 513.3222222222222, N
185164, 514.3444444444444, N
185508, 515.3, N
185873, 516.3138888888889, N
186356, 517.6555555555556, N
186808, 518.9111111111112, N
187213, 520.0361111111112, N
187601, 521.1138888888889, N
187978, 522.1611111111112, N
188368, 523.2444444444444, N
188775, 524.375, N
189148, 525.4111111111112, N
189502, 526.3944444444444, N
189876, 527.4333333333333, N
190235, 528.4305555555555, N
190619, 529.4972222222223, N
191003, 530.5638888888889, N
191362, 531.5611111111111, N
191697, 532.4916666666667, N
192059, 533.4972222222223, N
192429, 534.525, N
192881, 535.7805555555556, N
193342, 537.0611111111111, N
193553, 537.6472222222222, V
193696, 538.0444444444445, x
194133, 539.2583333333333, N
194553, 540.425, N
194944, 541.5111111111111, N
195319, 542.5527777777778, N
195696, 543.6, N
196072, 544.6444444444444, N
196433, 545.6472222222222, N
196803, 546.675, N
197180, 547.7222222222222, N
197550, 548.75, N
197906, 549.7388888888889, N
198371, 551.0305555555556, N
198826, 552.2944444444445, N
199241, 553.4472222222222, N
199660, 554.6111111111111, N
200045, 555.6805555555555, N
200415, 556.7083333333334, N
200792, 557.7555555555556, N
201187, 558.8527777777778, N
201574, 559.9277777777778, N
201971, 561.0305555555556, N
202342, 562.0611111111111, N
202704, 563.0666666666667, N
203074, 564.0944444444444, N
203467, 565.1861111111111, N
203835, 566.2083333333334, N
204214, 567.2611111111111, N
204608, 568.3555555555556, N
205063, 569.6194444444444, N
205495, 570.8194444444445, N
205731, 571.475, V
206305, 573.0694444444445, N
206704, 574.1777777777778, N
207065, 575.1805555555555, N
207434, 576.2055555555555, N
207811, 577.2527777777777, N
208205, 578.3472222222222, N
208574, 579.3722222222223, N
208929, 580.3583333333333, N
209293, 581.3694444444444, N
209649, 582.3583333333333, N
210016, 583.3777777777777, N
210460, 584.6111111111111, N
210887, 585.7972222222222, N
211265, 586.8472222222222, N
211640, 587.8888888888889, N
212015, 588.9305555555555, N
212404, 590.0111111111111, N
212809, 591.1361111111111, N
213190, 592.1944444444445, N
213547, 593.1861111111111, N
213941, 594.2805555555556, N
214332, 595.3666666666667, N
214710, 596.4166666666666, N
215094, 597.4833333333333, N
215469, 598.525, N
215837, 599.5472222222222, N
216215, 600.5972222222222, N
216619, 601.7194444444444, N
216994, 602.7611111111111, N
217354, 603.7611111111111, N
217728, 604.8, N
218073, 605.7583333333333, N
218440, 606.7777777777778, N
218906, 608.0722222222222, N
219385, 609.4027777777778, N
219806, 610.5722222222222, N
220207, 611.6861111111111, N
220597, 612.7694444444444, N
220989, 613.8583333333333, N
221206, 614.4611111111111, V
221307, 614.7416666666667, x
221738, 615.9388888888889, N
222085, 616.9027777777778, N
222447, 617.9083333333333, N
222805, 618.9027777777778, N
223215, 620.0416666666666, N
223664, 621.2888888888889, N
224051, 622.3638888888889, N
224436, 623.4333333333333, N
224821, 624.5027777777777, N
225226, 625.6277777777777, N
225611, 626.6972222222222, N
225999, 627.775, N
226369, 628.8027777777778, N
226742, 629.8388888888888, N
227128, 630.9111111111112, N
227530, 632.0277777777778, N
227899, 633.0527777777778, N
228274, 634.0944444444444, N
228634, 635.0944444444444, N
229005, 636.125, N
229380, 637.1666666666666, N
229755, 638.2083333333334, N
230134, 639.2611111111111, N
230481, 640.225, N
230948, 641.5222222222222, N
231371, 642.6972222222222, N
231783, 643.8416666666667, N
232181, 644.9472222222222, N
232586, 646.0722222222222, N
232964, 647.1222222222223, N
233372, 648.2555555555556, N
233748, 649.3, N
234137, 650.3805555555556, N
234516, 651.4333333333333, N
234868, 652.4111111111112, N
235230, 653.4166666666666, N
235593, 654.425, N
236000, 655.5555555555555, N
236380, 656.6111111111111, N
236750, 657.6388888888889, N
237124, 658.6777777777778, N
237487, 659.6861111111111, N
237839, 660.6638888888889, N
238302, 661.95, N
238802, 663.3388888888888, N
239205, 664.4583333333334, N
239640, 665.6666666666666, N
240024, 666.7333333333333, N
240446, 667.9055555555556, N
240857, 669.0472222222222, N
241220, 670.0555555555555, N
241587, 671.075, N
241986, 672.1833333333333, N
242385, 673.2916666666666, N
242786, 674.4055555555556, N
243162, 675.45, N
243519, 676.4416666666667, N
243881, 677.4472222222222, N
244254, 678.4833333333333, N
244655, 679.5972222222222, N
245037, 680.6583333333333, N
245427, 681.7416666666667, N
245782, 682.7277777777778, N
246151, 683.7527777777777, N
246542, 684.8388888888888, N
246948, 685.9666666666667, N
247341, 687.0583333333333, N
247732, 688.1444444444444, N
248114, 689.2055555555555, N
248503, 690.2861111111112, N
248908, 691.4111111111112, N
249312, 692.5333333333333, N
249688, 693.5777777777778, N
250054, 694.5944444444444, N
250435, 695.6527777777778, N
250822, 696.7277777777778, N
251220, 697.8333333333334, N
251606, 698.9055555555556, N
251973, 699.925, N
252321, 700.8916666666667, N
252678, 701.8833333333333, N
252926, 702.5722222222222, ~
253029, 702.8583333333333, N
253419, 703.9416666666667, N
253873, 705.2027777777778, N
254180, 706.0555555555555, ~
254259, 706.275, N
254623, 707.2861111111112, N
255022, 708.3944444444444, N
255412, 709.4777777777778, N
255797, 710.5472222222222, N
256157, 711.5472222222222, N
256506, 712.5166666666667, N
256842, 713.45, N
257187, 714.4083333333333, N
257615, 715.5972222222222, N
257956, 716.5444444444445, N
258301, 717.5027777777777, N
258629, 718.4138888888889, N
259090, 719.6944444444445, N
259490, 720.8055555555555, N
259930, 722.0277777777778, N
260310, 723.0833333333334, N
260665, 724.0694444444445, N
261018, 725.05, N
261386, 726.0722222222222, N
261745, 727.0694444444445, N
262114, 728.0944444444444, N
262474, 729.0944444444444, N
262958, 730.4388888888889, N
263192, 731.0888888888888, A
263670, 732.4166666666666, N
264186, 733.85, N
264555, 734.875, N
264949, 735.9694444444444, N
265315, 736.9861111111111, N
265681, 738.0027777777777, N
266082, 739.1166666666667, N
266473, 740.2027777777778, N
266848, 741.2444444444444, N
267211, 742.2527777777777, N
267557, 743.2138888888888, N
267931, 744.2527777777777, N
268510, 745.8611111111111, N
268697, 746.3805555555556, V
268976, 747.1555555555556, N
269368, 748.2444444444444, N
269782, 749.3944444444444, N
270176, 750.4888888888889, N
270574, 751.5944444444444, N
270988, 752.7444444444444, N
271373, 753.8138888888889, N
271749, 754.8583333333333, N
272129, 755.9138888888889, N
272520, 757.0, N
272906, 758.0722222222222, N
273277, 759.1027777777778, N
273633, 760.0916666666667, N
273989, 761.0805555555555, N
274451, 762.3638888888889, N
274894, 763.5944444444444, N
275301, 764.725, N
275687, 765.7972222222222, N
276052, 766.8111111111111, N
276177, 767.1583333333333, ~
276430, 767.8611111111111, N
276816, 768.9333333333333, N
277186, 769.9611111111111, N
277565, 771.0138888888889, N
277905, 771.9583333333334, N
278057, 772.3805555555556, ~
278289, 773.025, N
278657, 774.0472222222222, N
279048, 775.1333333333333, N
279432, 776.2, N
279793, 777.2027777777778, N
280145, 778.1805555555555, N
280500, 779.1666666666666, N
280515, 779.2083333333334, |
280944, 780.4, N
281419, 781.7194444444444, N
281865, 782.9583333333334, N
282251, 784.0305555555556, N
282633, 785.0916666666667, N
283030, 786.1944444444445, N
283437, 787.325, N
283831, 788.4194444444445, N
284221, 789.5027777777777, N
284593, 790.5361111111112, N
284955, 791.5416666666666, N
285350, 792.6388888888889, N
285740, 793.7222222222222, N
286128, 794.8, N
286496, 795.8222222222222, N
286861, 796.8361111111111, N
287229, 797.8583333333333, N
287614, 798.9277777777778, N
287995, 799.9861111111111, N
288349, 800.9694444444444, N
288741, 802.0583333333333, N
289160, 803.2222222222222, N
289564, 804.3444444444444, N
289944, 805.4, N
290324, 806.4555555555555, N
290678, 807.4388888888889, N
291025, 808.4027777777778, N
291381, 809.3916666666667, N
291731, 810.3638888888889, N
292106, 811.4055555555556, N
292485, 812.4583333333334, N
292846, 813.4611111111111, N
293071, 814.0861111111111, ~
293198, 814.4388888888889, N
293555, 815.4305555555555, N
293939, 816.4972222222223, N
294300, 817.5, N
294671, 818.5305555555556, N
294799, 818.8861111111111, ~
295039, 819.5527777777778, N
295391, 820.5305555555556, N
295739, 821.4972222222223, N
296125, 822.5694444444445, N
296514, 823.65, N
296901, 824.725, N
297264, 825.7333333333333, N
297628, 826.7444444444444, N
297982, 827.7277777777778, N
298355, 828.7638888888889, N
298742, 829.8388888888888, N
299164, 831.0111111111111, N
299591, 832.1972222222222, N
299992, 833.3111111111111, N
300380, 834.3888888888889, N
300782, 835.5055555555556, N
301187, 836.6305555555556, N
301222, 836.7277777777778, ~
301551, 837.6416666666667, N
301855, 838.4861111111111, ~
301897, 838.6027777777778, N
302305, 839.7361111111111, N
302716, 840.8777777777777, N
303115, 841.9861111111111, N
303510, 843.0833333333334, N
303886, 844.1277777777777, N
304251, 845.1416666666667, N
304631, 846.1972222222222, N
305012, 847.2555555555556, N
305372, 848.2555555555556, N
305751, 849.3083333333333, N
306122, 850.3388888888888, N
306677, 851.8805555555556, N
306962, 852.6722222222222, N
307380, 853.8333333333334, N
307779, 854.9416666666667, N
308180, 856.0555555555555, N
308549, 857.0805555555555, N
308930, 858.1388888888889, N
309325, 859.2361111111111, N
309713, 860.3138888888889, N
310078, 861.3277777777778, N
310445, 862.3472222222222, N
310806, 863.35, N
311164, 864.3444444444444, N
311535, 865.375, N
311685, 865.7916666666666, ~
311987, 866.6305555555556, N
312423, 867.8416666666667, N
312628, 868.4111111111112, ~
312838, 868.9944444444444, N
312945, 869.2916666666666, ~
313238, 870.1055555555556, N
313650, 871.25, N
314055, 872.375, N
314443, 873.4527777777778, N
314817, 874.4916666666667, N
315182, 875.5055555555556, N
315605, 876.6805555555555, N
315997, 877.7694444444444, N
316385, 878.8472222222222, N
316774, 879.9277777777778, N
317138, 880.9388888888889, N
317530, 882.0277777777778, N
317931, 883.1416666666667, N
318323, 884.2305555555556, N
318688, 885.2444444444444, N
319095, 886.375, N
319467, 887.4083333333333, N
319864, 888.5111111111111, N
320262, 889.6166666666667, N
320664, 890.7333333333333, N
321043, 891.7861111111112, N
321411, 892.8083333333333, N
321790, 893.8611111111111, N
322177, 894.9361111111111, N
322578, 896.05, N
322953, 897.0916666666667, N
323326, 898.1277777777777, N
323695, 899.1527777777778, N
324077, 900.2138888888888, N
324454, 901.2611111111111, N
324874, 902.4277777777778, N
325255, 903.4861111111111, N
325603, 904.4527777777778, N
326005, 905.5694444444445, N
326392, 906.6444444444444, N
326580, 907.1666666666666, V
326699, 907.4972222222223, x
327161, 908.7805555555556, N
327543, 909.8416666666667, N
327900, 910.8333333333334, N
328267, 911.8527777777778, N
328648, 912.9111111111112, N
329035, 913.9861111111111, N
329401, 915.0027777777777, N
329755, 915.9861111111111, N
330116, 916.9888888888889, N
330489, 918.025, N
331001, 919.4472222222222, N
331464, 920.7333333333333, N
331868, 921.8555555555556, N
332264, 922.9555555555555, N
332642, 924.0055555555556, N
333040, 925.1111111111111, N
333441, 926.225, N
333831, 927.3083333333333, N
334190, 928.3055555555555, N
334212, 928.3666666666667, ~
334364, 928.7888888888889, ~
334573, 929.3694444444444, N
334953, 930.425, N
335334, 931.4833333333333, N
335722, 932.5611111111111, N
336094, 933.5944444444444, N
336303, 934.175, ~
336431, 934.5305555555556, N
336488, 934.6888888888889, ~
336780, 935.5, N
337156, 936.5444444444445, N
337630, 937.8611111111111, N
338069, 939.0805555555555, N
338488, 940.2444444444444, N
338890, 941.3611111111111, N
339290, 942.4722222222222, N
339706, 943.6277777777777, N
340099, 944.7194444444444, N
340481, 945.7805555555556, N
340850, 946.8055555555555, N
341234, 947.8722222222223, N
341610, 948.9166666666666, N
342015, 950.0416666666666, N
342382, 951.0611111111111, N
342755, 952.0972222222222, N
343112, 953.0888888888888, N
343489, 954.1361111111111, N
343871, 955.1972222222222, N
344251, 956.2527777777777, N
344641, 957.3361111111111, N
345179, 958.8305555555555, N
345623, 960.0638888888889, N
346052, 961.2555555555556, N
346447, 962.3527777777778, N
346853, 963.4805555555556, N
347216, 964.4888888888889, N
347585, 965.5138888888889, N
347976, 966.6, N
348367, 967.6861111111111, N
348752, 968.7555555555556, N
349129, 969.8027777777778, N
349491, 970.8083333333333, N
349855, 971.8194444444445, N
350240, 972.8888888888889, N
350636, 973.9888888888889, N
351009, 975.025, N
351399, 976.1083333333333, N
351764, 977.1222222222223, N
352138, 978.1611111111112, N
352531, 979.2527777777777, N
352921, 980.3361111111111, N
353295, 981.375, N
353659, 982.3861111111111, N
354039, 983.4416666666667, N
354426, 984.5166666666667, N
354821, 985.6138888888889, N
355230, 986.75, N
355604, 987.7888888888889, N
355977, 988.825, N
356363, 989.8972222222222, N
356757, 990.9916666666667, N
357152, 992.0888888888888, N
357525, 993.125, N
357899, 994.1638888888889, N
358288, 995.2444444444444, N
358684, 996.3444444444444, N
359087, 997.4638888888888, N
359501, 998.6138888888889, N
359875, 999.6527777777778, N
360260, 1000.7222222222222, N
360660, 1001.8333333333334, N
361050, 1002.9166666666666, N
361452, 1004.0333333333333, N
361854, 1005.15, N
362235, 1006.2083333333334, N
362628, 1007.3, N
363000, 1008.3333333333334, N
363407, 1009.4638888888888, N
363808, 1010.5777777777778, N
364183, 1011.6194444444444, N
364555, 1012.6527777777778, N
364931, 1013.6972222222222, N
365314, 1014.7611111111111, N
365698, 1015.8277777777778, N
366090, 1016.9166666666666, N
366353, 1017.6472222222222, ~
366453, 1017.925, N
366810, 1018.9166666666666, N
367185, 1019.9583333333334, N
367562, 1021.0055555555556, N
367908, 1021.9666666666667, N
368299, 1023.0527777777778, N
368645, 1024.013888888889, N
369003, 1025.0083333333334, N
369466, 1026.2944444444445, N
369906, 1027.5166666666667, N
370311, 1028.6416666666667, N
370665, 1029.625, N
371059, 1030.7194444444444, N
371429, 1031.7472222222223, N
371823, 1032.8416666666667, N
372227, 1033.963888888889, N
372616, 1035.0444444444445, N
372977, 1036.0472222222222, N
373352, 1037.088888888889, N
373517, 1037.5472222222222, ~
373714, 1038.0944444444444, N
374101, 1039.1694444444445, N
374484, 1040.2333333333333, N
374852, 1041.2555555555555, N
375199, 1042.2194444444444, N
375554, 1043.2055555555555, N
375937, 1044.2694444444444, N
376355, 1045.4305555555557, N
376741, 1046.5027777777777, N
377108, 1047.5222222222221, N
377449, 1048.4694444444444, N
377789, 1049.4138888888888, N
378143, 1050.3972222222221, N
378494, 1051.3722222222223, N
378844, 1052.3444444444444, N
379185, 1053.2916666666667, N
379355, 1053.763888888889, ~
379526, 1054.2388888888888, N
379858, 1055.161111111111, N
380203, 1056.1194444444445, N
380554, 1057.0944444444444, N
380896, 1058.0444444444445, N
381233, 1058.9805555555556, N
381562, 1059.8944444444444, N
381886, 1060.7944444444445, N
382209, 1061.6916666666666, N
382550, 1062.638888888889, N
382911, 1063.6416666666667, N
383257, 1064.6027777777779, N
383599, 1065.5527777777777, N
383933, 1066.4805555555556, N
384275, 1067.4305555555557, N
384616, 1068.3777777777777, N
384968, 1069.3555555555556, N
385318, 1070.3277777777778, N
385646, 1071.2388888888888, N
385971, 1072.1416666666667, N
386291, 1073.0305555555556, N
386630, 1073.9722222222222, N
386965, 1074.9027777777778, N
387305, 1075.8472222222222, N
387644, 1076.7888888888888, N
387948, 1077.6333333333334, N
388268, 1078.5222222222221, N
388580, 1079.388888888889, N
388908, 1080.3, N
389232, 1081.2, N
389553, 1082.0916666666667, N
389883, 1083.0083333333334, N
390201, 1083.8916666666667, N
390502, 1084.7277777777779, N
390845, 1085.6805555555557, N
391194, 1086.65, N
391554, 1087.65, N
391892, 1088.588888888889, N
392230, 1089.5277777777778, N
392555, 1090.4305555555557, N
392847, 1091.2416666666666, F
393056, 1091.8222222222223, V
393120, 1092.0, x
393521, 1093.1138888888888, N
393850, 1094.0277777777778, N
394158, 1094.8833333333334, N
394440, 1095.6666666666667, N
394752, 1096.5333333333333, N
394948, 1097.0777777777778, ~
395065, 1097.4027777777778, N
395368, 1098.2444444444445, N
395687, 1099.1305555555555, N
396004, 1100.0111111111112, N
396313, 1100.8694444444445, N
396618, 1101.7166666666667, N
396918, 1102.55, N
397234, 1103.4277777777777, N
397559, 1104.3305555555555, N
397913, 1105.3138888888889, N
398258, 1106.2722222222221, N
398590, 1107.1944444444443, N
398917, 1108.1027777777779, N
399231, 1108.975, N
399581, 1109.9472222222223, N
399741, 1110.3916666666667, |
399924, 1110.9, N
400246, 1111.7944444444445, N
400584, 1112.7333333333333, N
400933, 1113.7027777777778, N
401253, 1114.5916666666667, N
401605, 1115.5694444444443, N
401982, 1116.6166666666666, N
402349, 1117.6361111111112, N
402678, 1118.55, N
403021, 1119.5027777777777, N
403355, 1120.4305555555557, N
403700, 1121.388888888889, N
404062, 1122.3944444444444, N
404432, 1123.4222222222222, N
404796, 1124.4333333333334, N
405111, 1125.3083333333334, N
405436, 1126.2111111111112, N
405608, 1126.6888888888889, |
405787, 1127.1861111111111, N
406105, 1128.0694444444443, N
406572, 1129.3666666666666, N
406941, 1130.3916666666667, N
407289, 1131.3583333333333, N
407629, 1132.3027777777777, N
408138, 1133.7166666666667, N
408548, 1134.8555555555556, N
408923, 1135.8972222222221, N
409297, 1136.9361111111111, N
409616, 1137.8222222222223, N
409942, 1138.7277777777779, N
410285, 1139.6805555555557, N
410690, 1140.8055555555557, N
411060, 1141.8333333333333, N
411504, 1143.0666666666666, N
411844, 1144.0111111111112, N
412190, 1144.9722222222222, N
412560, 1146.0, N
412957, 1147.1027777777779, N
413512, 1148.6444444444444, N
413957, 1149.8805555555555, N
414373, 1151.036111111111, N
414758, 1152.1055555555556, N
415150, 1153.1944444444443, N
415535, 1154.263888888889, N
415870, 1155.1944444444443, N
416228, 1156.1888888888889, N
416678, 1157.4388888888889, N
416802, 1157.7833333333333, ~
417024, 1158.4, N
417409, 1159.4694444444444, N
417846, 1160.6833333333334, N
418198, 1161.661111111111, N
418579, 1162.7194444444444, N
418964, 1163.7888888888888, N
419358, 1164.8833333333334, N
419761, 1166.0027777777777, N
420144, 1167.0666666666666, N
420515, 1168.0972222222222, N
420845, 1169.013888888889, N
421252, 1170.1444444444444, N
421669, 1171.3027777777777, N
421766, 1171.5722222222223, ~
422157, 1172.6583333333333, N
422524, 1173.6777777777777, N
422921, 1174.7805555555556, N
423315, 1175.875, N
423726, 1177.0166666666667, N
424115, 1178.0972222222222, N
424505, 1179.1805555555557, N
424861, 1180.1694444444445, N
425244, 1181.2333333333333, N
425627, 1182.2972222222222, N
426020, 1183.388888888889, N
426448, 1184.5777777777778, N
427064, 1186.2888888888888, N
427428, 1187.3, N
427840, 1188.4444444444443, N
428240, 1189.5555555555557, N
428661, 1190.725, N
429039, 1191.775, N
429133, 1192.036111111111, ~
429396, 1192.7666666666667, N
429720, 1193.6666666666667, ~
429767, 1193.7972222222222, N
430176, 1194.9333333333334, N
430563, 1196.0083333333334, N
430952, 1197.088888888889, N
431494, 1198.5944444444444, N
431978, 1199.9388888888889, N
432421, 1201.1694444444445, N
432815, 1202.263888888889, N
433193, 1203.3138888888889, N
433562, 1204.338888888889, N
433922, 1205.338888888889, N
434313, 1206.425, N
434700, 1207.5, N
435093, 1208.5916666666667, N
435657, 1210.1583333333333, j
436069, 1211.3027777777777, N
436469, 1212.4138888888888, N
436887, 1213.575, N
437295, 1214.7083333333333, N
437548, 1215.411111111111, ~
437665, 1215.736111111111, N
438029, 1216.7472222222223, N
438399, 1217.775, N
438760, 1218.7777777777778, N
439133, 1219.8138888888889, N
439548, 1220.9666666666667, N
439987, 1222.1861111111111, N
440424, 1223.4, N
440857, 1224.6027777777779, N
441261, 1225.725, N
441645, 1226.7916666666667, N
442028, 1227.8555555555556, N
442396, 1228.8777777777777, N
442751, 1229.8638888888888, N
443135, 1230.9305555555557, N
443510, 1231.9722222222222, N
443873, 1232.9805555555556, N
444227, 1233.963888888889, N
444599, 1234.9972222222223, N
444956, 1235.9888888888888, N
445358, 1237.1055555555556, N
445747, 1238.1861111111111, N
446121, 1239.225, N
446477, 1240.213888888889, N
446837, 1241.213888888889, N
447193, 1242.2027777777778, N
447588, 1243.3, N
448058, 1244.6055555555556, N
448401, 1245.5583333333334, N
448753, 1246.536111111111, N
449123, 1247.5638888888889, N
449488, 1248.5777777777778, N
449861, 1249.6138888888888, N
450223, 1250.6194444444445, N
450567, 1251.575, N
450908, 1252.5222222222221, N
451250, 1253.4722222222222, N
451613, 1254.4805555555556, N
451970, 1255.4722222222222, N
452321, 1256.4472222222223, N
452444, 1256.7888888888888, ~
452648, 1257.3555555555556, N
452977, 1258.2694444444444, N
453327, 1259.2416666666666, N
453665, 1260.1805555555557, N
454026, 1261.1833333333334, N
454362, 1262.1166666666666, N
454712, 1263.088888888889, N
455049, 1264.025, N
455366, 1264.9055555555556, N
455716, 1265.8777777777777, N
456062, 1266.838888888889, N
456422, 1267.838888888889, N
456760, 1268.7777777777778, N
457078, 1269.661111111111, N
457258, 1270.161111111111, V
457752, 1271.5333333333333, N
458096, 1272.4888888888888, N
458454, 1273.4833333333333, N
458806, 1274.4611111111112, N
459137, 1275.3805555555555, N
459451, 1276.2527777777777, N
459785, 1277.1805555555557, N
460136, 1278.1555555555556, N
460497, 1279.1583333333333, N
460856, 1280.1555555555556, N
461216, 1281.1555555555556, N
461555, 1282.0972222222222, N
461899, 1283.0527777777777, N
462239, 1283.9972222222223, N
462602, 1285.0055555555555, N
462939, 1285.9416666666666, N
463287, 1286.9083333333333, N
463624, 1287.8444444444444, N
463931, 1288.6972222222223, N
464259, 1289.6083333333333, N
464607, 1290.575, N
464962, 1291.5611111111111, N
465310, 1292.5277777777778, N
465651, 1293.475, N
465994, 1294.4277777777777, N
466317, 1295.325, N
466653, 1296.2583333333334, N
467012, 1297.2555555555555, N
467346, 1298.1833333333334, N
467668, 1299.0777777777778, N
467985, 1299.9583333333333, N
468302, 1300.838888888889, N
468617, 1301.713888888889, N
468959, 1302.6638888888888, N
469316, 1303.6555555555556, N
469639, 1304.5527777777777, N
469978, 1305.4944444444445, N
470137, 1305.9361111111111, ~
470321, 1306.4472222222223, N
470643, 1307.3416666666667, N
470982, 1308.2833333333333, N
471316, 1309.2111111111112, N
471655, 1310.1527777777778, N
471985, 1311.0694444444443, N
472305, 1311.9583333333333, N
472602, 1312.7833333333333, N
472919, 1313.6638888888888, N
473247, 1314.575, N
473577, 1315.4916666666666, N
473890, 1316.361111111111, N
474218, 1317.2722222222221, N
474534, 1318.15, N
474844, 1319.0111111111112, N
475171, 1319.9194444444445, N
475510, 1320.861111111111, N
475848, 1321.8, N
476163, 1322.675, N
476494, 1323.5944444444444, N
476813, 1324.4805555555556, N
477112, 1325.3111111111111, N
477446, 1326.2388888888888, N
477790, 1327.1944444444443, N
478143, 1328.175, N
478464, 1329.0666666666666, N
478794, 1329.9833333333333, N
479123, 1330.8972222222221, N
479446, 1331.7944444444445, N
479794, 1332.7611111111112, N
480157, 1333.7694444444444, N
480504, 1334.7333333333333, N
480835, 1335.6527777777778, N
481163, 1336.5638888888889, N
481505, 1337.513888888889, N
481837, 1338.4361111111111, N
482191, 1339.4194444444445, N
482547, 1340.4083333333333, N
482885, 1341.3472222222222, N
483198, 1342.2166666666667, N
483523, 1343.1194444444445, N
483851, 1344.0305555555556, N
484196, 1344.9888888888888, N
484536, 1345.9333333333334, N
484857, 1346.825, N
485193, 1347.7583333333334, N
485517, 1348.6583333333333, N
485840, 1349.5555555555557, N
486183, 1350.5083333333334, N
486531, 1351.475, N
486869, 1352.4138888888888, N
487193, 1353.3138888888889, N
487526, 1354.2388888888888, N
487849, 1355.1361111111112, N
488180, 1356.0555555555557, N
488539, 1357.0527777777777, N
488880, 1358.0, N
489211, 1358.9194444444445, N
489576, 1359.9333333333334, N
489912, 1360.8666666666666, N
490263, 1361.8416666666667, N
490593, 1362.7583333333334, N
490797, 1363.325, V
490898, 1363.6055555555556, x
491338, 1364.8277777777778, N
491647, 1365.6861111111111, N
491967, 1366.575, N
492302, 1367.5055555555555, N
492626, 1368.4055555555556, N
492946, 1369.2944444444445, N
493292, 1370.2555555555555, N
493611, 1371.1416666666667, N
493901, 1371.9472222222223, N
494200, 1372.7777777777778, N
494523, 1373.675, N
494853, 1374.5916666666667, N
495198, 1375.55, N
495532, 1376.4777777777779, N
495869, 1377.4138888888888, N
496171, 1378.2527777777777, N
496478, 1379.1055555555556, N
496797, 1379.9916666666666, N
497137, 1380.9361111111111, N
497479, 1381.8861111111112, N
497813, 1382.8138888888889, N
498150, 1383.75, N
498470, 1384.638888888889, N
498791, 1385.5305555555556, N
499119, 1386.4416666666666, N
499452, 1387.3666666666666, N
499785, 1388.2916666666667, N
500105, 1389.1805555555557, N
500414, 1390.0388888888888, N
500737, 1390.9361111111111, N
501064, 1391.8444444444444, N
501403, 1392.786111111111, N
501751, 1393.7527777777777, N
502080, 1394.6666666666667, N
502418, 1395.6055555555556, N
502727, 1396.463888888889, N
503077, 1397.4361111111111, N
503428, 1398.411111111111, N
503764, 1399.3444444444444, N
504126, 1400.35, N
504476, 1401.3222222222223, N
504812, 1402.2555555555555, N
505135, 1403.1527777777778, N
505491, 1404.1416666666667, N
505835, 1405.0972222222222, N
506185, 1406.0694444444443, N
506546, 1407.0722222222223, N
506863, 1407.9527777777778, N
507200, 1408.888888888889, N
507561, 1409.8916666666667, N
507933, 1410.925, N
508266, 1411.85, N
508626, 1412.85, N
508968, 1413.8, N
509292, 1414.7, N
509631, 1415.6416666666667, N
509803, 1416.1194444444445, V
510333, 1417.5916666666667, N
510679, 1418.5527777777777, N
510991, 1419.4194444444445, N
511324, 1420.3444444444444, N
511676, 1421.3222222222223, N
512001, 1422.225, N
512352, 1423.2, N
512727, 1424.2416666666666, N
513055, 1425.1527777777778, N
513396, 1426.1, N
513728, 1427.0222222222221, N
514108, 1428.0777777777778, N
514463, 1429.0638888888889, N
514835, 1430.0972222222222, N
515187, 1431.075, N
515523, 1432.0083333333334, N
515873, 1432.9805555555556, N
516218, 1433.9388888888889, N
516603, 1435.0083333333334, N
516974, 1436.0388888888888, N
517322, 1437.0055555555555, N
517664, 1437.9555555555555, N
518023, 1438.9527777777778, N
518366, 1439.9055555555556, N
518747, 1440.963888888889, N
519098, 1441.9388888888889, N
519439, 1442.8861111111112, N
519775, 1443.8194444444443, N
520138, 1444.8277777777778, N
520456, 1445.7111111111112, N
520800, 1446.6666666666667, N
521184, 1447.7333333333333, N
521516, 1448.6555555555556, N
521877, 1449.6583333333333, N
522231, 1450.6416666666667, N
522562, 1451.5611111111111, N
522979, 1452.7194444444444, N
523357, 1453.7694444444444, N
523728, 1454.8, N
524098, 1455.8277777777778, N
524460, 1456.8333333333333, N
524803, 1457.786111111111, N
525182, 1458.838888888889, N
525529, 1459.8027777777777, N
525899, 1460.8305555555555, N
526230, 1461.75, N
526417, 1462.2694444444444, V
526532, 1462.588888888889, x
526953, 1463.7583333333334, N
527326, 1464.7944444444445, N
527651, 1465.6972222222223, N
528026, 1466.7388888888888, N
528246, 1467.35, A
528756, 1468.7666666666667, N
528960, 1469.3333333333333, A
529389, 1470.525, N
529762, 1471.5611111111111, N
530114, 1472.5388888888888, N
530468, 1473.5222222222221, N
530823, 1474.5083333333334, N
531143, 1475.3972222222221, N
531533, 1476.4805555555556, N
531896, 1477.4888888888888, N
532241, 1478.4472222222223, N
532611, 1479.475, N
532972, 1480.4777777777779, N
533340, 1481.5, N
533697, 1482.4916666666666, N
534071, 1483.5305555555556, N
534441, 1484.5583333333334, N
534807, 1485.575, N
535166, 1486.5722222222223, N
535512, 1487.5333333333333, N
535879, 1488.5527777777777, N
536232, 1489.5333333333333, N
536601, 1490.5583333333334, N
536964, 1491.5666666666666, N
537294, 1492.4833333333333, N
537648, 1493.4666666666667, N
538021, 1494.5027777777777, N
538380, 1495.5, N
538765, 1496.5694444444443, N
539114, 1497.5388888888888, N
539457, 1498.4916666666666, N
539790, 1499.4166666666667, N
540147, 1500.4083333333333, N
540510, 1501.4166666666667, N
540890, 1502.4722222222222, N
541222, 1503.3944444444444, N
541571, 1504.3638888888888, N
541916, 1505.3222222222223, N
542276, 1506.3222222222223, N
542626, 1507.2944444444445, N
543000, 1508.3333333333333, N
543367, 1509.3527777777779, N
543711, 1510.3083333333334, N
544088, 1511.3555555555556, N
544465, 1512.4027777777778, N
544832, 1513.4222222222222, N
545213, 1514.4805555555556, N
545549, 1515.4138888888888, N
545915, 1516.4305555555557, N
546280, 1517.4444444444443, N
546682, 1518.5611111111111, N
547029, 1519.525, N
547409, 1520.5805555555555, N
547749, 1521.525, N
548115, 1522.5416666666667, N
548462, 1523.5055555555555, N
548885, 1524.6805555555557, N
549273, 1525.7583333333334, N
549655, 1526.8194444444443, N
550042, 1527.8944444444444, N
550402, 1528.8944444444444, N
550751, 1529.8638888888888, N
551170, 1531.0277777777778, N
551539, 1532.0527777777777, N
551902, 1533.0611111111111, N
552291, 1534.1416666666667, N
552634, 1535.0944444444444, N
553104, 1536.4, N
553575, 1537.7083333333333, N
553977, 1538.825, N
554330, 1539.8055555555557, N
554714, 1540.8722222222223, N
555088, 1541.911111111111, N
555466, 1542.9611111111112, N
555864, 1544.0666666666666, N
556210, 1545.0277777777778, N
556575, 1546.0416666666667, N
557011, 1547.2527777777777, N
557470, 1548.5277777777778, N
557884, 1549.6777777777777, N
558302, 1550.838888888889, N
558669, 1551.8583333333333, N
559052, 1552.9222222222222, N
559414, 1553.9277777777777, N
559847, 1555.1305555555555, N
560237, 1556.213888888889, N
560625, 1557.2916666666667, N
560993, 1558.3138888888889, N
561362, 1559.338888888889, N
561739, 1560.3861111111112, N
562157, 1561.5472222222222, N
562558, 1562.661111111111, N
562950, 1563.75, N
563317, 1564.7694444444444, N
563706, 1565.85, N
564086, 1566.9055555555556, N
564468, 1567.9666666666667, N
564846, 1569.0166666666667, N
565212, 1570.0333333333333, N
565572, 1571.0333333333333, N
565952, 1572.088888888889, N
566307, 1573.075, N
566674, 1574.0944444444444, N
567036, 1575.1, N
567385, 1576.0694444444443, N
567752, 1577.088888888889, N
568109, 1578.0805555555555, N
568546, 1579.2944444444445, N
568978, 1580.4944444444445, N
569337, 1581.4916666666666, N
569722, 1582.5611111111111, N
570095, 1583.5972222222222, N
570447, 1584.575, N
570835, 1585.6527777777778, N
571175, 1586.5972222222222, N
571508, 1587.5222222222221, N
571906, 1588.6277777777777, N
572235, 1589.5416666666667, N
572662, 1590.7277777777779, N
573037, 1591.7694444444444, N
573369, 1592.6916666666666, N
573730, 1593.6944444444443, N
574067, 1594.6305555555555, N
574405, 1595.5694444444443, N
574779, 1596.6083333333333, N
575185, 1597.736111111111, N
575525, 1598.6805555555557, N
575908, 1599.7444444444445, N
576278, 1600.7722222222221, N
576620, 1601.7222222222222, N
577020, 1602.8333333333333, N
577394, 1603.8722222222223, N
577783, 1604.9527777777778, N
578104, 1605.8444444444444, N
578473, 1606.8694444444445, N
578850, 1607.9166666666667, N
579194, 1608.8722222222223, N
579592, 1609.9777777777779, N
579935, 1610.9305555555557, N
580289, 1611.9138888888888, N
580619, 1612.8305555555555, N
580794, 1613.3166666666666, V
580872, 1613.5333333333333, x
581312, 1614.7555555555555, N
581645, 1615.6805555555557, N
581964, 1616.5666666666666, N
582337, 1617.6027777777779, N
582659, 1618.4972222222223, N
582995, 1619.4305555555557, N
583336, 1620.3777777777777, N
583741, 1621.5027777777777, N
584064, 1622.4, N
584408, 1623.3555555555556, N
584785, 1624.4027777777778, N
585105, 1625.2916666666667, N
585447, 1626.2416666666666, N
585838, 1627.3277777777778, N
586214, 1628.3722222222223, N
586538, 1629.2722222222221, N
586937, 1630.3805555555555, N
587285, 1631.3472222222222, N
587629, 1632.3027777777777, N
588029, 1633.4138888888888, N
588384, 1634.4, N
588750, 1635.4166666666667, N
589061, 1636.2805555555556, N
589419, 1637.275, N
589759, 1638.2194444444444, N
590143, 1639.286111111111, N
590491, 1640.2527777777777, N
590834, 1641.2055555555555, N
591185, 1642.1805555555557, N
591506, 1643.0722222222223, N
591847, 1644.0194444444444, N
592235, 1645.0972222222222, N
592575, 1646.0416666666667, N
592937, 1647.0472222222222, N
593280, 1648.0, N
593635, 1648.986111111111, N
593996, 1649.9888888888888, N
594339, 1650.9416666666666, N
594463, 1651.286111111111, ~
594727, 1652.0194444444444, N
595069, 1652.9694444444444, N
595416, 1653.9333333333334, N
595738, 1654.8277777777778, N
596080, 1655.7777777777778, N
596451, 1656.8083333333334, N
596808, 1657.8, N
597158, 1658.7722222222221, N
597492, 1659.7, N
597824, 1660.6222222222223, N
598188, 1661.6333333333334, N
598546, 1662.6277777777777, N
598898, 1663.6055555555556, N
599094, 1664.15, |
599288, 1664.6888888888889, N
599637, 1665.6583333333333, N
599997, 1666.6583333333333, N
600358, 1667.661111111111, N
600745, 1668.736111111111, N
601109, 1669.7472222222223, N
601485, 1670.7916666666667, N
601827, 1671.7416666666666, N
602172, 1672.7, N
602530, 1673.6944444444443, N
602910, 1674.75, N
603275, 1675.763888888889, N
603629, 1676.7472222222223, N
603976, 1677.7111111111112, N
604307, 1678.6305555555555, N
604655, 1679.5972222222222, N
605019, 1680.6083333333333, N
605387, 1681.6305555555555, N
605745, 1682.625, N
606080, 1683.5555555555557, N
606422, 1684.5055555555555, N
606753, 1685.425, N
607101, 1686.3916666666667, N
607453, 1687.3694444444445, N
607799, 1688.3305555555555, N
608121, 1689.225, N
608439, 1690.1083333333333, N
608757, 1690.9916666666666, N
609074, 1691.8722222222223, N
609401, 1692.7805555555556, N
609738, 1693.7166666666667, N
610069, 1694.6361111111112, N
610380, 1695.5, N
610683, 1696.3416666666667, N
611005, 1697.236111111111, N
611323, 1698.1194444444445, N
611647, 1699.0194444444444, N
611968, 1699.911111111111, N
612283, 1700.786111111111, N
612590, 1701.638888888889, N
612888, 1702.4666666666667, N
613186, 1703.2944444444445, N
613500, 1704.1666666666667, N
613811, 1705.0305555555556, N
614116, 1705.8777777777777, N
614419, 1706.7194444444444, N
614720, 1707.5555555555557, N
615018, 1708.3833333333334, N
615317, 1709.213888888889, N
615630, 1710.0833333333333, N
615960, 1711.0, N
616278, 1711.8833333333334, N
616601, 1712.7805555555556, N
616909, 1713.6361111111112, N
617224, 1714.5111111111112, N
617531, 1715.3638888888888, N
617841, 1716.225, N
618169, 1717.1361111111112, N
618482, 1718.0055555555555, N
618779, 1718.8305555555555, N
619062, 1719.6166666666666, N
619235, 1720.0972222222222, V
619299, 1720.275, x
619643, 1721.2305555555556, N
619930, 1722.0277777777778, N
620228, 1722.8555555555556, N
620536, 1723.7111111111112, N
620829, 1724.525, N
621112, 1725.3111111111111, N
621389, 1726.0805555555555, N
621668, 1726.8555555555556, N
621962, 1727.6722222222222, N
622255, 1728.486111111111, N
622550, 1729.3055555555557, N
622863, 1730.175, N
623156, 1730.9888888888888, N
623439, 1731.775, N
623726, 1732.5722222222223, N
624015, 1733.375, N
624322, 1734.2277777777779, N
624633, 1735.0916666666667, N
624933, 1735.925, N
625241, 1736.7805555555556, N
625534, 1737.5944444444444, N
625814, 1738.3722222222223, N
626105, 1739.1805555555557, N
626397, 1739.9916666666666, N
626715, 1740.875, N
627019, 1741.7194444444444, N
627320, 1742.5555555555557, N
627624, 1743.4, N
627914, 1744.2055555555555, N
628196, 1744.9888888888888, N
628492, 1745.8111111111111, N
628795, 1746.6527777777778, N
629108, 1747.5222222222221, N
629414, 1748.3722222222223, N
629711, 1749.1972222222223, N
630011, 1750.0305555555556, N
630306, 1750.85, N
630605, 1751.6805555555557, N
630910, 1752.5277777777778, N
631218, 1753.3833333333334, N
631433, 1753.9805555555556, A
631840, 1755.111111111111, N
632124, 1755.9, N
632428, 1756.7444444444445, N
632729, 1757.5805555555555, N
632876, 1757.9888888888888, ~
633033, 1758.425, N
633343, 1759.286111111111, N
633654, 1760.15, N
633966, 1761.0166666666667, N
634259, 1761.8305555555555, N
634546, 1762.6277777777777, N
634851, 1763.475, N
635157, 1764.325, N
635470, 1765.1944444444443, N
635783, 1766.0638888888889, N
636091, 1766.9194444444445, N
636397, 1767.7694444444444, N
636694, 1768.5944444444444, N
636996, 1769.4333333333334, N
637317, 1770.325, N
637637, 1771.213888888889, N
637953, 1772.0916666666667, N
638272, 1772.9777777777779, N
638573, 1773.8138888888889, N
638884, 1774.6777777777777, N
639185, 1775.513888888889, N
639501, 1776.3916666666667, N
639836, 1777.3222222222223, N
640165, 1778.236111111111, N
640467, 1779.075, N
640770, 1779.9166666666667, N
641080, 1780.7777777777778, N
641406, 1781.6833333333334, N
641487, 1781.9083333333333, ~
641744, 1782.6222222222223, N
642096, 1783.6, N
642449, 1784.5805555555555, N
642770, 1785.4722222222222, N
643089, 1786.3583333333333, N
643416, 1787.2666666666667, N
643743, 1788.175, N
644072, 1789.088888888889, N
644411, 1790.0305555555556, N
644733, 1790.925, N
645034, 1791.7611111111112, N
645328, 1792.5777777777778, N
645618, 1793.3833333333334, N
645952, 1794.3111111111111, N
646271, 1795.1972222222223, N
646463, 1795.7305555555556, ~
646593, 1796.0916666666667, N
646924, 1797.0111111111112, N
647241, 1797.8916666666667, N
647549, 1798.7472222222223, N
647864, 1799.6222222222223, N
648199, 1800.5527777777777, N
648531, 1801.475, N
648853, 1802.3694444444445, N
649170, 1803.25, N
649471, 1804.0861111111112, N
649769, 1804.9138888888888, N
