18, 0.05, +
111, 0.30833333333333335, L
343, 0.9527777777777777, L
571, 1.586111111111111, L
807, 2.2416666666666667, L
1048, 2.911111111111111, L
1287, 3.575, L
1523, 4.230555555555555, L
1765, 4.902777777777778, L
1994, 5.538888888888889, L
2219, 6.163888888888889, L
2435, 6.763888888888889, L
2661, 7.391666666666667, L
2883, 8.008333333333333, L
3116, 8.655555555555555, L
3352, 9.311111111111112, L
3586, 9.96111111111111, L
3813, 10.591666666666667, L
4041, 11.225, L
4264, 11.844444444444445, L
4480, 12.444444444444445, L
4690, 13.027777777777779, L
4908, 13.633333333333333, L
5128, 14.244444444444444, L
5358, 14.883333333333333, L
5592, 15.533333333333333, L
5820, 16.166666666666668, L
6047, 16.79722222222222, L
6259, 17.386111111111113, F
6482, 18.005555555555556, L
6696, 18.6, L
6918, 19.216666666666665, L
7134, 19.816666666666666, L
7357, 20.43611111111111, L
7584, 21.066666666666666, L
7824, 21.733333333333334, L
8067, 22.408333333333335, L
8292, 23.033333333333335, L
8512, 23.644444444444446, L
8737, 24.269444444444446, L
8971, 24.919444444444444, L
9197, 25.54722222222222, L
9423, 26.175, L
9660, 26.833333333333332, L
9902, 27.505555555555556, L
10148, 28.18888888888889, L
10391, 28.863888888888887, L
10620, 29.5, L
10845, 30.125, L
11075, 30.76388888888889, L
11310, 31.416666666666668, F
11549, 32.080555555555556, L
11784, 32.733333333333334, L
12030, 33.416666666666664, L
12277, 34.102777777777774, L
12523, 34.78611111111111, L
12765, 35.458333333333336, L
12997, 36.102777777777774, L
13228, 36.74444444444445, L
13464, 37.4, L
13716, 38.1, L
13924, 38.67777777777778, V
14212, 39.477777777777774, L
14463, 40.175, L
14714, 40.87222222222222, L
14958, 41.55, L
15201, 42.225, L
15437, 42.88055555555555, L
15669, 43.525, L
15918, 44.21666666666667, L
16181, 44.94722222222222, L
16437, 45.65833333333333, L
16686, 46.35, L
16936, 47.044444444444444, L
17178, 47.71666666666667, L
17424, 48.4, L
17663, 49.06388888888889, L
17903, 49.730555555555554, L
18154, 50.42777777777778, L
18422, 51.172222222222224, L
18679, 51.88611111111111, L
18929, 52.580555555555556, L
19176, 53.266666666666666, L
19415, 53.93055555555556, L
19660, 54.611111111111114, L
19907, 55.297222222222224, L
20151, 55.975, L
20400, 56.666666666666664, L
20668, 57.41111111111111, L
20929, 58.13611111111111, L
21180, 58.833333333333336, L
21425, 59.513888888888886, L
21668, 60.18888888888889, L
21910, 60.861111111111114, L
22160, 61.55555555555556, L
22408, 62.24444444444445, L
22661, 62.94722222222222, L
22922, 63.672222222222224, L
23189, 64.41388888888889, L
23439, 65.10833333333333, L
23677, 65.76944444444445, L
23918, 66.43888888888888, L
24158, 67.10555555555555, L
24408, 67.8, L
24664, 68.5111111111111, L
24923, 69.23055555555555, L
25180, 69.94444444444444, L
25448, 70.68888888888888, L
25699, 71.3861111111111, L
25938, 72.05, L
26178, 72.71666666666667, L
26422, 73.39444444444445, L
26679, 74.10833333333333, L
26940, 74.83333333333333, L
27200, 75.55555555555556, L
27455, 76.26388888888889, L
27656, 76.82222222222222, V
27965, 77.68055555555556, L
28204, 78.34444444444445, L
28452, 79.03333333333333, L
28699, 79.71944444444445, L
28960, 80.44444444444444, L
29230, 81.19444444444444, L
29490, 81.91666666666667, L
29743, 82.61944444444444, L
30004, 83.34444444444445, L
30255, 84.04166666666667, L
30499, 84.71944444444445, L
30743, 85.39722222222223, L
30997, 86.10277777777777, L
31259, 86.83055555555555, L
31532, 87.58888888888889, L
31792, 88.31111111111112, L
32042, 89.00555555555556, L
32295, 89.70833333333333, L
32551, 90.41944444444445, L
32799, 91.10833333333333, L
33042, 91.78333333333333, L
33243, 92.34166666666667, V
33561, 93.225, L
33826, 93.96111111111111, L
34088, 94.68888888888888, L
34335, 95.375, L
34580, 96.05555555555556, L
34837, 96.76944444444445, L
35086, 97.46111111111111, L
35332, 98.14444444444445, L
35591, 98.8638888888889, L
35853, 99.59166666666667, L
36119, 100.33055555555555, L
36378, 101.05, L
36627, 101.74166666666666, L
36874, 102.42777777777778, L
37131, 103.14166666666667, L
37383, 103.84166666666667, L
37639, 104.55277777777778, L
37902, 105.28333333333333, L
38165, 106.01388888888889, L
38431, 106.75277777777778, L
38691, 107.475, L
38937, 108.15833333333333, L
39178, 108.82777777777778, L
39434, 109.53888888888889, L
39691, 110.25277777777778, L
39952, 110.97777777777777, L
40212, 111.7, L
40473, 112.425, L
40729, 113.1361111111111, L
40984, 113.84444444444445, L
41228, 114.52222222222223, L
41470, 115.19444444444444, L
41721, 115.89166666666667, L
41989, 116.6361111111111, L
42251, 117.3638888888889, L
42504, 118.06666666666666, L
42764, 118.78888888888889, L
43012, 119.47777777777777, L
43264, 120.17777777777778, L
43512, 120.86666666666666, L
43760, 121.55555555555556, L
44010, 122.25, L
44283, 123.00833333333334, L
44547, 123.74166666666666, L
44800, 124.44444444444444, L
45054, 125.15, L
45302, 125.83888888888889, L
45549, 126.525, L
45777, 127.15833333333333, V
46046, 127.90555555555555, L
46292, 128.5888888888889, L
46556, 129.32222222222222, L
46820, 130.05555555555554, L
47076, 130.76666666666668, L
47316, 131.43333333333334, L
47558, 132.10555555555555, L
47796, 132.76666666666668, L
48044, 133.45555555555555, L
48291, 134.14166666666668, L
48546, 134.85, L
48805, 135.56944444444446, L
49073, 136.3138888888889, L
49328, 137.0222222222222, L
49567, 137.6861111111111, L
49809, 138.35833333333332, L
50049, 139.025, L
50300, 139.72222222222223, L
50558, 140.4388888888889, L
50810, 141.13888888888889, L
51062, 141.8388888888889, L
51329, 142.58055555555555, L
51580, 143.27777777777777, L
51821, 143.94722222222222, L
52059, 144.60833333333332, L
52302, 145.28333333333333, L
52550, 145.97222222222223, L
52812, 146.7, L
53068, 147.4111111111111, L
53319, 148.10833333333332, L
53578, 148.82777777777778, L
53833, 149.5361111111111, L
54073, 150.20277777777778, L
54307, 150.8527777777778, L
54550, 151.52777777777777, L
54793, 152.20277777777778, L
55049, 152.9138888888889, L
55306, 153.62777777777777, L
55560, 154.33333333333334, L
55805, 155.01388888888889, L
56057, 155.7138888888889, L
56297, 156.38055555555556, L
56532, 157.03333333333333, L
56773, 157.70277777777778, L
57021, 158.39166666666668, L
57283, 159.11944444444444, L
57550, 159.86111111111111, L
57803, 160.5638888888889, L
58049, 161.24722222222223, L
58299, 161.94166666666666, L
58547, 162.63055555555556, L
58793, 163.3138888888889, L
59037, 163.99166666666667, L
59295, 164.70833333333334, L
59561, 165.44722222222222, L
59829, 166.19166666666666, L
60083, 166.8972222222222, L
60329, 167.58055555555555, L
60581, 168.28055555555557, L
60833, 168.98055555555555, L
61081, 169.66944444444445, L
61333, 170.36944444444444, L
61597, 171.1027777777778, L
61859, 171.83055555555555, L
62126, 172.57222222222222, L
62378, 173.2722222222222, L
62620, 173.94444444444446, L
62865, 174.625, L
63120, 175.33333333333334, L
63370, 176.02777777777777, L
63620, 176.72222222222223, L
63879, 177.44166666666666, L
64131, 178.14166666666668, L
64389, 178.85833333333332, L
64636, 179.54444444444445, L
64875, 180.20833333333334, L
65108, 180.85555555555555, L
65357, 181.54722222222222, L
65609, 182.24722222222223, L
65862, 182.95, L
66112, 183.64444444444445, L
66370, 184.36111111111111, L
66626, 185.07222222222222, L
66878, 185.7722222222222, L
67118, 186.4388888888889, L
67355, 187.09722222222223, L
67609, 187.80277777777778, L
67871, 188.53055555555557, L
68133, 189.25833333333333, L
68388, 189.96666666666667, L
68646, 190.68333333333334, L
68895, 191.375, L
69145, 192.06944444444446, L
69386, 192.73888888888888, L
69629, 193.4138888888889, L
69881, 194.11388888888888, L
70148, 194.85555555555555, L
70409, 195.58055555555555, L
70662, 196.28333333333333, L
70916, 196.98888888888888, L
71160, 197.66666666666666, L
71406, 198.35, L
71656, 199.04444444444445, L
71902, 199.7277777777778, L
72150, 200.41666666666666, L
72417, 201.15833333333333, L
72681, 201.89166666666668, L
72937, 202.6027777777778, L
73185, 203.29166666666666, L
73432, 203.9777777777778, L
73676, 204.65555555555557, L
73929, 205.35833333333332, L
74180, 206.05555555555554, L
74432, 206.75555555555556, L
74697, 207.49166666666667, L
74970, 208.25, L
75226, 208.9611111111111, L
75466, 209.62777777777777, L
75712, 210.3111111111111, L
75954, 210.98333333333332, L
76206, 211.68333333333334, L
76463, 212.3972222222222, L
76726, 213.12777777777777, L
76984, 213.84444444444443, L
77256, 214.6, L
77511, 215.30833333333334, L
77754, 215.98333333333332, L
77999, 216.6638888888889, L
78248, 217.35555555555555, L
78506, 218.07222222222222, L
78771, 218.80833333333334, L
79032, 219.53333333333333, L
79288, 220.24444444444444, L
79550, 220.97222222222223, L
79803, 221.675, L
80049, 222.35833333333332, L
80290, 223.02777777777777, L
80539, 223.71944444444443, L
80797, 224.4361111111111, L
81065, 225.18055555555554, L
81324, 225.9, L
81578, 226.60555555555555, L
81835, 227.31944444444446, L
82089, 228.025, L
82335, 228.70833333333334, L
82576, 229.37777777777777, L
82829, 230.08055555555555, L
83085, 230.79166666666666, L
83354, 231.5388888888889, L
83616, 232.26666666666668, L
83868, 232.96666666666667, L
84119, 233.6638888888889, L
84378, 234.38333333333333, L
84622, 235.0611111111111, L
84823, 235.61944444444444, V
85114, 236.42777777777778, L
85367, 237.13055555555556, L
85636, 237.87777777777777, L
85895, 238.59722222222223, L
86143, 239.2861111111111, L
86380, 239.94444444444446, L
86628, 240.63333333333333, L
86866, 241.29444444444445, L
87103, 241.95277777777778, L
87344, 242.62222222222223, L
87592, 243.3111111111111, L
87841, 244.00277777777777, L
88085, 244.68055555555554, L
88320, 245.33333333333334, L
88550, 245.97222222222223, L
88776, 246.6, L
89020, 247.27777777777777, L
89255, 247.93055555555554, L
89490, 248.58333333333334, L
89732, 249.25555555555556, L
89980, 249.94444444444446, L
90230, 250.63888888888889, L
90478, 251.32777777777778, L
90707, 251.9638888888889, L
90935, 252.59722222222223, L
91175, 253.26388888888889, L
91424, 253.95555555555555, L
91673, 254.6472222222222, L
91919, 255.33055555555555, L
92173, 256.0361111111111, L
92424, 256.73333333333335, L
92676, 257.43333333333334, L
92920, 258.1111111111111, L
93159, 258.775, L
93405, 259.4583333333333, L
93671, 260.1972222222222, L
93933, 260.925, L
94190, 261.6388888888889, L
94455, 262.375, L
94712, 263.0888888888889, L
94970, 263.80555555555554, L
95223, 264.5083333333333, L
95474, 265.2055555555556, L
95726, 265.90555555555557, L
96004, 266.6777777777778, L
96276, 267.43333333333334, L
96540, 268.1666666666667, L
96805, 268.90277777777777, L
97062, 269.6166666666667, L
97320, 270.3333333333333, L
97575, 271.0416666666667, L
97831, 271.7527777777778, L
98091, 272.475, L
98372, 273.25555555555553, L
98645, 274.0138888888889, L
98902, 274.72777777777776, L
99157, 275.43611111111113, L
99407, 276.13055555555553, L
99665, 276.84722222222223, L
99919, 277.5527777777778, L
100176, 278.26666666666665, L
100441, 279.0027777777778, L
100722, 279.78333333333336, L
100983, 280.5083333333333, L
101234, 281.2055555555556, L
101483, 281.89722222222224, L
101727, 282.575, L
101979, 283.275, L
102236, 283.9888888888889, L
102493, 284.7027777777778, L
102752, 285.4222222222222, L
103024, 286.1777777777778, L
103284, 286.9, L
103531, 287.5861111111111, L
103779, 288.275, L
104027, 288.9638888888889, L
104282, 289.6722222222222, L
104538, 290.3833333333333, V
104817, 291.15833333333336, L
105076, 291.8777777777778, L
105346, 292.6277777777778, L
105606, 293.35, L
105854, 294.0388888888889, L
106097, 294.7138888888889, L
106349, 295.4138888888889, L
106605, 296.125, L
106872, 296.8666666666667, L
107137, 297.60277777777776, L
107396, 298.3222222222222, L
107657, 299.0472222222222, L
107920, 299.77777777777777, L
108170, 300.47222222222223, L
108413, 301.14722222222224, L
108669, 301.85833333333335, L
108932, 302.5888888888889, L
109204, 303.34444444444443, L
109471, 304.0861111111111, L
109733, 304.81388888888887, L
109990, 305.52777777777777, L
110249, 306.2472222222222, L
110499, 306.94166666666666, L
110744, 307.6222222222222, L
111002, 308.3388888888889, L
111264, 309.06666666666666, L
111537, 309.825, L
111802, 310.56111111111113, L
112058, 311.27222222222224, L
112308, 311.96666666666664, L
112571, 312.6972222222222, L
112822, 313.39444444444445, L
113075, 314.09722222222223, L
113340, 314.8333333333333, L
113606, 315.5722222222222, L
113882, 316.3388888888889, L
114147, 317.075, L
114398, 317.77222222222224, L
114643, 318.4527777777778, L
114906, 319.18333333333334, L
115161, 319.89166666666665, L
115415, 320.59722222222223, L
115684, 321.34444444444443, L
115948, 322.0777777777778, L
116217, 322.825, L
116479, 323.5527777777778, L
116730, 324.25, L
116974, 324.9277777777778, L
117241, 325.6694444444444, L
117501, 326.39166666666665, L
117761, 327.1138888888889, L
118027, 327.85277777777776, L
118288, 328.5777777777778, L
118544, 329.2888888888889, L
118796, 329.9888888888889, L
119037, 330.65833333333336, L
119274, 331.31666666666666, L
119531, 332.03055555555557, L
119787, 332.7416666666667, L
120043, 333.4527777777778, L
120291, 334.14166666666665, L
120536, 334.8222222222222, L
120780, 335.5, L
121016, 336.15555555555557, L
121243, 336.7861111111111, L
121470, 337.4166666666667, L
121700, 338.05555555555554, L
121954, 338.7611111111111, L
122191, 339.4194444444444, L
122430, 340.0833333333333, L
122662, 340.72777777777776, L
122891, 341.3638888888889, L
123119, 341.9972222222222, L
123354, 342.65, L
123576, 343.26666666666665, L
123801, 343.89166666666665, L
124037, 344.5472222222222, L
124289, 345.2472222222222, L
124527, 345.90833333333336, L
124758, 346.55, L
124992, 347.2, L
125221, 347.8361111111111, L
125452, 348.47777777777776, L
125687, 349.13055555555553, L
125917, 349.76944444444445, L
126151, 350.4194444444444, L
126397, 351.10277777777776, L
126651, 351.80833333333334, L
126892, 352.47777777777776, L
127121, 353.1138888888889, L
127352, 353.75555555555553, L
127580, 354.3888888888889, L
127816, 355.0444444444444, L
128056, 355.7111111111111, L
128296, 356.3777777777778, L
128538, 357.05, L
128793, 357.7583333333333, L
129048, 358.46666666666664, L
129294, 359.15, L
129525, 359.7916666666667, L
129760, 360.44444444444446, L
129994, 361.09444444444443, L
130240, 361.77777777777777, L
130488, 362.46666666666664, L
130741, 363.1694444444444, L
130993, 363.86944444444447, L
131256, 364.6, L
131506, 365.2944444444444, L
131744, 365.9555555555556, L
131981, 366.6138888888889, L
132222, 367.28333333333336, L
132476, 367.9888888888889, L
132741, 368.725, L
132996, 369.43333333333334, L
133250, 370.1388888888889, L
133515, 370.875, L
133773, 371.59166666666664, L
134018, 372.27222222222224, L
134258, 372.93888888888887, L
134509, 373.6361111111111, L
134764, 374.34444444444443, L
135034, 375.09444444444443, L
135297, 375.825, L
135553, 376.5361111111111, L
135813, 377.2583333333333, L
136072, 377.97777777777776, L
136320, 378.6666666666667, L
136563, 379.34166666666664, L
136816, 380.0444444444444, L
137075, 380.7638888888889, L
137345, 381.5138888888889, L
137610, 382.25, L
137869, 382.96944444444443, L
138115, 383.65277777777777, L
138373, 384.36944444444447, L
138619, 385.0527777777778, L
138861, 385.725, L
139114, 386.4277777777778, L
139374, 387.15, L
139644, 387.9, L
139912, 388.64444444444445, L
140166, 389.35, L
140407, 390.01944444444445, L
140659, 390.71944444444443, L
140909, 391.4138888888889, L
141162, 392.1166666666667, L
141414, 392.81666666666666, L
141678, 393.55, L
141943, 394.2861111111111, L
142204, 395.0111111111111, L
142448, 395.68888888888887, L
142689, 396.35833333333335, L
142936, 397.0444444444444, L
143190, 397.75, L
143442, 398.45, L
143696, 399.15555555555557, L
143957, 399.88055555555553, L
144210, 400.5833333333333, L
144467, 401.2972222222222, L
144712, 401.97777777777776, L
144953, 402.64722222222224, L
145195, 403.31944444444446, L
145456, 404.0444444444444, L
145712, 404.75555555555553, L
145970, 405.47222222222223, L
146230, 406.19444444444446, L
146487, 406.90833333333336, L
146742, 407.6166666666667, L
146996, 408.3222222222222, L
147243, 409.0083333333333, L
147484, 409.6777777777778, L
147751, 410.4194444444444, L
148021, 411.1694444444444, L
148283, 411.89722222222224, L
148538, 412.60555555555555, L
148793, 413.31388888888887, L
149045, 414.0138888888889, L
149298, 414.71666666666664, L
149541, 415.39166666666665, L
149787, 416.075, L
150053, 416.81388888888887, L
150325, 417.56944444444446, L
150588, 418.3, L
150837, 418.9916666666667, L
151089, 419.69166666666666, L
151337, 420.38055555555553, L
151588, 421.0777777777778, L
151835, 421.7638888888889, L
152086, 422.4611111111111, L
152353, 423.2027777777778, L
152624, 423.9555555555556, L
152885, 424.68055555555554, L
153073, 425.2027777777778, V
153378, 426.05, L
153620, 426.72222222222223, L
153876, 427.43333333333334, L
154125, 428.125, L
154320, 428.6666666666667, V
154645, 429.56944444444446, L
154916, 430.3222222222222, L
155173, 431.0361111111111, L
155416, 431.7111111111111, L
155658, 432.3833333333333, L
155897, 433.0472222222222, L
156145, 433.7361111111111, L
156400, 434.44444444444446, L
156654, 435.15, L
156905, 435.84722222222223, L
157169, 436.5805555555556, L
157415, 437.2638888888889, L
157652, 437.9222222222222, L
157890, 438.5833333333333, L
158132, 439.25555555555553, L
158383, 439.9527777777778, L
158645, 440.68055555555554, L
158907, 441.40833333333336, L
159161, 442.1138888888889, L
159426, 442.85, L
159680, 443.55555555555554, L
159922, 444.22777777777776, L
160162, 444.89444444444445, L
160411, 445.5861111111111, L
160669, 446.3027777777778, L
160938, 447.05, L
161197, 447.76944444444445, L
161453, 448.48055555555555, L
161715, 449.2083333333333, L
161968, 449.9111111111111, L
162216, 450.6, L
162457, 451.26944444444445, L
162710, 451.97222222222223, L
162969, 452.69166666666666, L
163241, 453.4472222222222, L
163502, 454.1722222222222, L
163754, 454.8722222222222, L
164009, 455.5805555555556, L
164266, 456.2944444444444, L
164516, 456.9888888888889, L
164761, 457.6694444444444, L
165020, 458.3888888888889, L
165283, 459.11944444444447, L
165554, 459.8722222222222, L
165816, 460.6, L
166067, 461.2972222222222, L
166318, 461.99444444444447, L
166576, 462.7111111111111, L
166826, 463.40555555555557, L
167072, 464.0888888888889, L
167334, 464.81666666666666, L
167597, 465.5472222222222, L
167867, 466.2972222222222, L
168129, 467.025, L
168380, 467.72222222222223, L
168627, 468.40833333333336, L
168890, 469.1388888888889, L
169145, 469.84722222222223, L
169401, 470.55833333333334, L
169670, 471.30555555555554, L
169935, 472.0416666666667, L
170205, 472.7916666666667, L
170463, 473.5083333333333, L
170716, 474.2111111111111, L
170963, 474.89722222222224, L
171224, 475.6222222222222, L
171483, 476.34166666666664, L
171744, 477.06666666666666, L
172008, 477.8, L
172269, 478.525, L
172533, 479.2583333333333, L
172790, 479.97222222222223, L
173036, 480.65555555555557, L
173277, 481.325, L
173538, 482.05, L
173801, 482.78055555555557, L
174063, 483.5083333333333, L
174318, 484.21666666666664, L
174577, 484.93611111111113, L
174827, 485.63055555555553, L
175075, 486.31944444444446, L
175314, 486.98333333333335, L
175554, 487.65, L
175812, 488.3666666666667, L
176053, 489.0361111111111, V
176340, 489.8333333333333, L
176589, 490.525, L
176845, 491.2361111111111, L
177087, 491.90833333333336, L
177336, 492.6, L
177584, 493.2888888888889, L
177830, 493.97222222222223, L
178083, 494.675, L
178355, 495.43055555555554, L
178614, 496.15, L
178862, 496.8388888888889, L
179104, 497.5111111111111, L
179345, 498.18055555555554, L
179591, 498.8638888888889, L
179842, 499.56111111111113, L
180088, 500.24444444444447, L
180336, 500.93333333333334, L
180600, 501.6666666666667, L
180868, 502.4111111111111, L
181124, 503.1222222222222, L
181362, 503.78333333333336, L
181609, 504.46944444444443, L
181857, 505.15833333333336, L
182114, 505.8722222222222, L
182370, 506.5833333333333, L
182630, 507.30555555555554, L
182903, 508.06388888888887, L
183174, 508.81666666666666, L
183431, 509.53055555555557, L
183625, 510.06944444444446, V
183929, 510.9138888888889, L
184183, 511.61944444444447, L
184458, 512.3833333333333, L
184723, 513.1194444444444, L
184987, 513.8527777777778, L
185262, 514.6166666666667, L
185529, 515.3583333333333, L
185780, 516.0555555555555, L
186028, 516.7444444444444, L
186282, 517.45, L
186539, 518.1638888888889, L
186812, 518.9222222222222, L
187078, 519.6611111111112, L
187339, 520.3861111111111, L
187607, 521.1305555555556, L
187865, 521.8472222222222, L
188115, 522.5416666666666, L
188362, 523.2277777777778, L
188618, 523.9388888888889, L
188885, 524.6805555555555, L
189164, 525.4555555555555, L
189427, 526.1861111111111, L
189684, 526.9, L
189945, 527.625, L
190198, 528.3277777777778, L
190399, 528.8861111111111, V
190692, 529.7, L
190951, 530.4194444444445, L
191227, 531.1861111111111, L
191500, 531.9444444444445, L
191760, 532.6666666666666, L
192010, 533.3611111111111, L
192270, 534.0833333333334, L
192520, 534.7777777777778, L
192767, 535.4638888888888, L
193018, 536.1611111111112, L
193280, 536.8888888888889, L
193549, 537.6361111111111, L
193819, 538.3861111111111, L
194071, 539.0861111111111, L
194311, 539.7527777777777, L
194565, 540.4583333333334, L
194815, 541.1527777777778, L
195063, 541.8416666666667, L
195318, 542.55, L
195583, 543.2861111111112, L
195849, 544.025, L
196117, 544.7694444444444, L
196368, 545.4666666666667, L
196608, 546.1333333333333, L
196858, 546.8277777777778, L
197115, 547.5416666666666, L
197372, 548.2555555555556, L
197625, 548.9583333333334, L
197891, 549.6972222222222, L
198154, 550.4277777777778, L
198417, 551.1583333333333, L
198665, 551.8472222222222, L
198909, 552.525, L
199164, 553.2333333333333, L
199430, 553.9722222222222, L
199697, 554.7138888888888, L
199961, 555.4472222222222, L
200231, 556.1972222222222, L
200498, 556.9388888888889, L
200760, 557.6666666666666, L
201008, 558.3555555555556, L
201258, 559.05, L
201518, 559.7722222222222, L
201788, 560.5222222222222, L
202057, 561.2694444444444, L
202321, 562.0027777777777, L
202589, 562.7472222222223, L
202846, 563.4611111111111, L
203108, 564.1888888888889, L
203359, 564.8861111111111, L
203612, 565.5888888888888, L
203878, 566.3277777777778, L
204157, 567.1027777777778, L
204429, 567.8583333333333, L
204695, 568.5972222222222, L
204959, 569.3305555555555, L
205213, 570.0361111111112, L
205475, 570.7638888888889, L
205731, 571.475, L
205987, 572.1861111111111, L
206260, 572.9444444444445, L
206543, 573.7305555555556, L
206813, 574.4805555555556, L
207070, 575.1944444444445, L
207330, 575.9166666666666, L
207584, 576.6222222222223, L
207843, 577.3416666666667, L
208101, 578.0583333333333, L
208364, 578.7888888888889, L
208637, 579.5472222222222, L
208914, 580.3166666666667, L
209177, 581.0472222222222, L
209424, 581.7333333333333, L
209676, 582.4333333333333, L
209925, 583.125, L
210182, 583.8388888888888, L
210440, 584.5555555555555, L
210703, 585.2861111111112, L
210971, 586.0305555555556, L
211240, 586.7777777777778, L
211497, 587.4916666666667, L
211742, 588.1722222222222, L
211989, 588.8583333333333, L
212237, 589.5472222222222, L
212501, 590.2805555555556, L
212767, 591.0194444444444, L
213029, 591.7472222222223, L
213291, 592.475, L
213561, 593.225, L
213813, 593.925, L
214056, 594.6, L
214307, 595.2972222222222, L
214560, 596.0, L
214832, 596.7555555555556, L
215102, 597.5055555555556, L
215364, 598.2333333333333, L
215628, 598.9666666666667, L
215898, 599.7166666666667, L
216148, 600.4111111111112, L
216394, 601.0944444444444, L
216588, 601.6333333333333, V
216910, 602.5277777777778, L
217182, 603.2833333333333, L
217454, 604.0388888888889, L
217715, 604.7638888888889, L
217973, 605.4805555555556, L
218236, 606.2111111111111, L
218488, 606.9111111111112, L
218734, 607.5944444444444, L
218995, 608.3194444444445, L
219262, 609.0611111111111, L
219535, 609.8194444444445, L
219757, 610.4361111111111, V
220055, 611.2638888888889, L
220309, 611.9694444444444, L
220573, 612.7027777777778, L
220825, 613.4027777777778, L
221078, 614.1055555555556, L
221341, 614.8361111111111, L
221609, 615.5805555555555, L
221881, 616.3361111111111, L
222140, 617.0555555555555, L
222387, 617.7416666666667, L
222640, 618.4444444444445, L
222899, 619.1638888888889, L
223153, 619.8694444444444, L
223408, 620.5777777777778, L
223676, 621.3222222222222, L
223941, 622.0583333333333, L
224213, 622.8138888888889, L
224467, 623.5194444444444, L
224712, 624.2, L
224968, 624.9111111111112, L
225228, 625.6333333333333, L
225490, 626.3611111111111, L
225751, 627.0861111111111, L
226023, 627.8416666666667, L
226290, 628.5833333333334, L
226556, 629.3222222222222, L
226806, 630.0166666666667, L
227051, 630.6972222222222, L
227308, 631.4111111111112, L
227572, 632.1444444444444, L
227839, 632.8861111111111, L
228102, 633.6166666666667, L
228371, 634.3638888888889, L
228637, 635.1027777777778, L
228897, 635.825, L
229145, 636.5138888888889, L
229393, 637.2027777777778, L
229656, 637.9333333333333, L
229926, 638.6833333333333, L
230196, 639.4333333333333, L
230457, 640.1583333333333, L
230720, 640.8888888888889, L
230981, 641.6138888888889, L
231241, 642.3361111111111, L
231487, 643.0194444444444, L
231733, 643.7027777777778, L
232004, 644.4555555555555, L
232276, 645.2111111111111, L
232540, 645.9444444444445, L
232801, 646.6694444444445, L
233057, 647.3805555555556, L
233309, 648.0805555555555, L
233565, 648.7916666666666, L
233810, 649.4722222222222, L
234057, 650.1583333333333, L
234325, 650.9027777777778, L
234598, 651.6611111111112, L
234817, 652.2694444444444, V
235114, 653.0944444444444, L
235368, 653.8, L
235619, 654.4972222222223, L
235873, 655.2027777777778, L
236129, 655.9138888888889, L
236388, 656.6333333333333, L
236658, 657.3833333333333, L
236935, 658.1527777777778, L
237202, 658.8944444444444, L
237453, 659.5916666666667, L
237706, 660.2944444444445, L
237957, 660.9916666666667, L
238216, 661.7111111111111, L
238480, 662.4444444444445, L
238745, 663.1805555555555, L
239015, 663.9305555555555, L
239291, 664.6972222222222, L
239552, 665.4222222222222, L
239798, 666.1055555555556, L
240048, 666.8, L
240300, 667.5, L
240566, 668.2388888888889, L
240832, 668.9777777777778, L
241100, 669.7222222222222, L
241369, 670.4694444444444, L
241639, 671.2194444444444, L
241892, 671.9222222222222, L
242139, 672.6083333333333, L
242393, 673.3138888888889, L
242647, 674.0194444444444, L
242921, 674.7805555555556, L
243190, 675.5277777777778, L
243455, 676.2638888888889, L
243720, 677.0, L
243987, 677.7416666666667, L
244239, 678.4416666666667, L
244486, 679.1277777777777, L
244746, 679.85, L
245007, 680.575, L
245285, 681.3472222222222, L
245497, 681.9361111111111, V
245821, 682.8361111111111, L
246078, 683.55, L
246347, 684.2972222222222, L
246602, 685.0055555555556, L
246851, 685.6972222222222, L
247116, 686.4333333333333, L
247385, 687.1805555555555, L
247661, 687.9472222222222, L
247925, 688.6805555555555, L
248180, 689.3888888888889, L
248436, 690.1, L
248697, 690.825, L
248953, 691.5361111111112, L
249205, 692.2361111111111, L
249473, 692.9805555555556, L
249742, 693.7277777777778, L
250015, 694.4861111111111, L
250274, 695.2055555555555, L
250523, 695.8972222222222, L
250783, 696.6194444444444, L
251042, 697.3388888888888, L
251302, 698.0611111111111, L
251565, 698.7916666666666, L
251836, 699.5444444444445, L
252111, 700.3083333333333, L
252382, 701.0611111111111, L
252633, 701.7583333333333, L
252877, 702.4361111111111, L
253136, 703.1555555555556, L
253394, 703.8722222222223, L
253656, 704.6, L
253918, 705.3277777777778, L
254185, 706.0694444444445, L
254451, 706.8083333333333, L
254717, 707.5472222222222, L
254968, 708.2444444444444, L
255210, 708.9166666666666, L
255470, 709.6388888888889, L
255734, 710.3722222222223, L
255998, 711.1055555555556, L
256259, 711.8305555555555, L
256525, 712.5694444444445, L
256788, 713.3, L
257046, 714.0166666666667, L
257296, 714.7111111111111, L
257544, 715.4, L
257811, 716.1416666666667, L
258079, 716.8861111111111, L
258345, 717.625, L
258610, 718.3611111111111, L
258872, 719.0888888888888, L
259133, 719.8138888888889, L
259388, 720.5222222222222, L
259638, 721.2166666666667, L
259890, 721.9166666666666, L
260164, 722.6777777777778, L
260434, 723.4277777777778, L
260699, 724.1638888888889, L
260963, 724.8972222222222, L
261216, 725.6, L
261472, 726.3111111111111, L
261727, 727.0194444444444, L
261978, 727.7166666666667, L
262234, 728.4277777777778, L
262510, 729.1944444444445, L
262779, 729.9416666666667, L
263034, 730.65, L
263291, 731.3638888888889, L
263540, 732.0555555555555, L
263795, 732.7638888888889, L
264053, 733.4805555555556, L
264308, 734.1888888888889, L
264571, 734.9194444444445, L
264853, 735.7027777777778, L
265122, 736.45, L
265377, 737.1583333333333, L
265629, 737.8583333333333, L
265879, 738.5527777777778, L
266135, 739.2638888888889, L
266394, 739.9833333333333, L
266657, 740.7138888888888, L
266924, 741.4555555555555, L
267202, 742.2277777777778, L
267466, 742.9611111111111, L
267717, 743.6583333333333, L
267966, 744.35, L
268216, 745.0444444444445, L
268477, 745.7694444444444, L
268745, 746.5138888888889, L
269013, 747.2583333333333, L
269275, 747.9861111111111, L
269549, 748.7472222222223, L
269803, 749.4527777777778, L
270050, 750.1388888888889, L
270296, 750.8222222222222, L
270544, 751.5111111111111, L
270806, 752.2388888888889, L
271082, 753.0055555555556, L
271346, 753.7388888888889, L
271603, 754.4527777777778, L
271869, 755.1916666666667, L
272122, 755.8944444444444, L
272369, 756.5805555555555, L
272611, 757.2527777777777, L
272866, 757.9611111111111, L
273127, 758.6861111111111, L
273399, 759.4416666666667, L
273662, 760.1722222222222, L
273913, 760.8694444444444, L
274172, 761.5888888888888, L
274427, 762.2972222222222, L
274674, 762.9833333333333, L
274921, 763.6694444444445, L
275180, 764.3888888888889, L
275442, 765.1166666666667, L
275710, 765.8611111111111, L
275971, 766.5861111111111, L
276224, 767.2888888888889, L
276472, 767.9777777777778, L
276727, 768.6861111111111, L
276977, 769.3805555555556, L
277225, 770.0694444444445, L
277488, 770.8, L
277754, 771.5388888888889, L
278027, 772.2972222222222, L
278288, 773.0222222222222, L
278541, 773.725, L
278792, 774.4222222222222, L
279055, 775.1527777777778, L
279313, 775.8694444444444, L
279570, 776.5833333333334, L
279840, 777.3333333333334, L
280108, 778.0777777777778, L
280381, 778.8361111111111, L
280638, 779.55, L
280885, 780.2361111111111, L
281142, 780.95, L
281405, 781.6805555555555, L
281667, 782.4083333333333, L
281930, 783.1388888888889, L
282201, 783.8916666666667, L
282465, 784.625, L
282731, 785.3638888888889, L
282983, 786.0638888888889, L
283229, 786.7472222222223, L
283489, 787.4694444444444, L
283756, 788.2111111111111, L
284024, 788.9555555555555, L
284287, 789.6861111111111, L
284558, 790.4388888888889, L
284819, 791.1638888888889, L
285077, 791.8805555555556, L
285326, 792.5722222222222, L
285572, 793.2555555555556, L
285832, 793.9777777777778, L
286102, 794.7277777777778, L
286371, 795.475, L
286632, 796.2, L
286896, 796.9333333333333, L
287154, 797.65, L
287411, 798.3638888888889, L
287660, 799.0555555555555, L
287909, 799.7472222222223, L
288177, 800.4916666666667, L
288451, 801.2527777777777, L
288719, 801.9972222222223, L
288979, 802.7194444444444, L
289235, 803.4305555555555, L
289490, 804.1388888888889, L
289748, 804.8555555555556, L
289999, 805.5527777777778, L
290249, 806.2472222222223, L
290525, 807.0138888888889, L
290795, 807.7638888888889, L
291056, 808.4888888888889, L
291317, 809.2138888888888, L
291569, 809.9138888888889, L
291824, 810.6222222222223, L
292083, 811.3416666666667, L
292340, 812.0555555555555, L
292598, 812.7722222222222, L
292876, 813.5444444444445, L
293145, 814.2916666666666, L
293402, 815.0055555555556, L
293656, 815.7111111111111, L
293906, 816.4055555555556, L
294162, 817.1166666666667, L
294421, 817.8361111111111, L
294683, 818.5638888888889, L
294946, 819.2944444444445, L
295223, 820.0638888888889, L
295490, 820.8055555555555, L
295742, 821.5055555555556, L
295989, 822.1916666666667, L
296240, 822.8888888888889, L
296499, 823.6083333333333, L
296764, 824.3444444444444, L
297027, 825.075, L
297292, 825.8111111111111, L
297570, 826.5833333333334, L
297829, 827.3027777777778, L
298077, 827.9916666666667, L
298327, 828.6861111111111, L
298579, 829.3861111111111, L
298842, 830.1166666666667, L
299112, 830.8666666666667, L
299379, 831.6083333333333, L
299643, 832.3416666666667, L
299916, 833.1, L
300169, 833.8027777777778, L
300414, 834.4833333333333, L
300663, 835.175, L
300916, 835.8777777777777, L
301179, 836.6083333333333, L
301454, 837.3722222222223, L
301721, 838.1138888888889, L
301976, 838.8222222222222, L
302239, 839.5527777777778, L
302491, 840.2527777777777, L
302739, 840.9416666666667, L
302989, 841.6361111111111, L
303249, 842.3583333333333, L
303521, 843.1138888888889, L
303797, 843.8805555555556, L
304062, 844.6166666666667, L
304315, 845.3194444444445, L
304544, 845.9555555555555, V
304828, 846.7444444444444, L
305081, 847.4472222222222, L
305338, 848.1611111111112, L
305607, 848.9083333333333, L
305882, 849.6722222222222, L
306154, 850.4277777777778, L
306417, 851.1583333333333, L
306667, 851.8527777777778, L
306926, 852.5722222222222, L
307182, 853.2833333333333, L
307441, 854.0027777777777, L
307704, 854.7333333333333, L
307976, 855.4888888888889, L
308249, 856.2472222222223, L
308521, 857.0027777777777, L
308774, 857.7055555555555, L
309021, 858.3916666666667, L
309279, 859.1083333333333, L
309537, 859.825, L
309800, 860.5555555555555, L
310068, 861.3, L
310336, 862.0444444444445, L
310604, 862.7888888888889, L
310868, 863.5222222222222, L
311116, 864.2111111111111, L
311362, 864.8944444444444, L
311620, 865.6111111111111, L
311885, 866.3472222222222, L
312150, 867.0833333333334, L
312411, 867.8083333333333, L
312678, 868.55, L
312935, 869.2638888888889, L
313193, 869.9805555555556, L
313439, 870.6638888888889, L
313683, 871.3416666666667, L
313946, 872.0722222222222, L
314217, 872.825, L
314483, 873.5638888888889, L
314745, 874.2916666666666, L
315007, 875.0194444444444, L
315265, 875.7361111111111, L
315520, 876.4444444444445, L
315769, 877.1361111111111, L
316019, 877.8305555555555, L
316291, 878.5861111111111, L
316560, 879.3333333333334, L
316828, 880.0777777777778, L
317091, 880.8083333333333, L
317348, 881.5222222222222, L
317605, 882.2361111111111, L
317865, 882.9583333333334, L
318119, 883.6638888888889, L
318376, 884.3777777777777, L
318655, 885.1527777777778, L
318926, 885.9055555555556, L
319189, 886.6361111111111, L
319449, 887.3583333333333, L
319698, 888.05, L
319955, 888.7638888888889, L
320215, 889.4861111111111, L
320471, 890.1972222222222, L
320733, 890.925, L
321013, 891.7027777777778, L
321279, 892.4416666666667, L
321532, 893.1444444444444, L
321783, 893.8416666666667, L
322032, 894.5333333333333, L
322287, 895.2416666666667, L
322546, 895.9611111111111, L
322806, 896.6833333333333, L
323069, 897.4138888888889, L
323346, 898.1833333333333, L
323608, 898.9111111111112, L
323854, 899.5944444444444, L
324102, 900.2833333333333, L
324348, 900.9666666666667, L
324606, 901.6833333333333, L
324863, 902.3972222222222, L
325127, 903.1305555555556, L
325390, 903.8611111111111, L
325663, 904.6194444444444, L
325921, 905.3361111111111, L
326168, 906.0222222222222, L
326418, 906.7166666666667, L
326665, 907.4027777777778, L
326927, 908.1305555555556, L
327194, 908.8722222222223, L
327459, 909.6083333333333, L
327720, 910.3333333333334, L
327989, 911.0805555555555, L
328241, 911.7805555555556, L
328483, 912.4527777777778, L
328729, 913.1361111111111, L
328976, 913.8222222222222, L
329240, 914.5555555555555, L
329510, 915.3055555555555, L
329771, 916.0305555555556, L
330027, 916.7416666666667, L
330238, 917.3277777777778, V
330544, 918.1777777777778, L
330783, 918.8416666666667, L
331035, 919.5416666666666, L
331289, 920.2472222222223, L
331553, 920.9805555555556, L
331822, 921.7277777777778, L
332084, 922.4555555555555, L
332333, 923.1472222222222, L
332588, 923.8555555555556, L
332834, 924.5388888888889, L
333079, 925.2194444444444, L
333325, 925.9027777777778, L
333583, 926.6194444444444, L
333849, 927.3583333333333, L
334119, 928.1083333333333, L
334379, 928.8305555555555, L
334628, 929.5222222222222, L
334878, 930.2166666666667, L
335129, 930.9138888888889, L
335379, 931.6083333333333, L
335577, 932.1583333333333, V
335894, 933.0388888888889, L
336155, 933.7638888888889, L
336427, 934.5194444444444, L
336679, 935.2194444444444, L
336925, 935.9027777777778, L
337174, 936.5944444444444, L
337432, 937.3111111111111, L
337684, 938.0111111111111, L
337937, 938.7138888888888, L
338204, 939.4555555555555, L
338466, 940.1833333333333, L
338733, 940.925, L
338986, 941.6277777777777, L
339233, 942.3138888888889, L
339483, 943.0083333333333, L
339746, 943.7388888888889, L
340006, 944.4611111111111, L
340265, 945.1805555555555, L
340537, 945.9361111111111, L
340799, 946.6638888888889, L
341061, 947.3916666666667, L
341315, 948.0972222222222, L
341564, 948.7888888888889, L
341814, 949.4833333333333, L
342084, 950.2333333333333, L
342352, 950.9777777777778, L
342614, 951.7055555555555, L
342881, 952.4472222222222, L
343141, 953.1694444444445, L
343399, 953.8861111111111, L
343653, 954.5916666666667, L
343904, 955.2888888888889, L
344157, 955.9916666666667, L
344434, 956.7611111111111, L
344707, 957.5194444444444, L
344968, 958.2444444444444, L
345230, 958.9722222222222, L
345483, 959.675, L
345743, 960.3972222222222, L
345995, 961.0972222222222, L
346247, 961.7972222222222, L
346509, 962.525, L
346791, 963.3083333333333, L
347061, 964.0583333333333, L
347321, 964.7805555555556, L
347578, 965.4944444444444, L
347826, 966.1833333333333, L
348082, 966.8944444444444, L
348333, 967.5916666666667, L
348588, 968.3, L
348854, 969.0388888888889, L
349133, 969.8138888888889, L
349398, 970.55, L
349650, 971.25, L
349905, 971.9583333333334, L
350152, 972.6444444444444, L
350408, 973.3555555555556, L
350665, 974.0694444444445, L
350928, 974.8, L
351196, 975.5444444444445, L
351474, 976.3166666666667, L
351738, 977.05, L
351988, 977.7444444444444, L
352239, 978.4416666666667, L
352491, 979.1416666666667, L
352751, 979.8638888888889, L
353014, 980.5944444444444, L
353279, 981.3305555555555, L
353550, 982.0833333333334, L
353822, 982.8388888888888, L
354079, 983.5527777777778, L
354325, 984.2361111111111, L
354578, 984.9388888888889, L
354835, 985.6527777777778, L
355103, 986.3972222222222, L
355367, 987.1305555555556, L
355629, 987.8583333333333, L
355901, 988.6138888888889, L
356162, 989.3388888888888, L
356410, 990.0277777777778, L
356655, 990.7083333333334, L
356907, 991.4083333333333, L
357164, 992.1222222222223, L
357438, 992.8833333333333, L
357706, 993.6277777777777, L
357967, 994.3527777777778, L
358240, 995.1111111111111, L
358499, 995.8305555555555, L
358750, 996.5277777777778, L
359002, 997.2277777777778, L
359263, 997.9527777777778, L
359534, 998.7055555555555, L
359814, 999.4833333333333, L
360084, 1000.2333333333333, L
360344, 1000.9555555555555, L
360610, 1001.6944444444445, L
360866, 1002.4055555555556, L
361115, 1003.0972222222222, L
361369, 1003.8027777777778, L
361632, 1004.5333333333333, L
361908, 1005.3, L
362183, 1006.0638888888889, L
362448, 1006.8, L
362704, 1007.5111111111111, L
362970, 1008.25, L
363223, 1008.9527777777778, L
363474, 1009.65, L
363734, 1010.3722222222223, L
364000, 1011.1111111111111, L
364273, 1011.8694444444444, L
364542, 1012.6166666666667, L
364798, 1013.3277777777778, L
365047, 1014.0194444444444, L
365307, 1014.7416666666667, L
365556, 1015.4333333333333, L
365806, 1016.1277777777777, L
366071, 1016.8638888888889, L
366335, 1017.5972222222222, L
366603, 1018.3416666666667, L
366869, 1019.0805555555555, L
367122, 1019.7833333333333, L
367366, 1020.4611111111111, L
367622, 1021.1722222222222, L
367876, 1021.8777777777777, L
368133, 1022.5916666666667, L
368395, 1023.3194444444445, L
368662, 1024.0611111111111, L
368927, 1024.7972222222222, L
369191, 1025.5305555555556, L
369439, 1026.2194444444444, L
369685, 1026.9027777777778, L
369944, 1027.6222222222223, L
370209, 1028.3583333333333, L
370475, 1029.0972222222222, L
370736, 1029.8222222222223, L
370975, 1030.486111111111, V
371268, 1031.3, L
371522, 1032.0055555555555, L
371772, 1032.7, L
372019, 1033.3861111111112, L
372280, 1034.111111111111, L
372548, 1034.8555555555556, L
372816, 1035.6, L
373076, 1036.3222222222223, L
373339, 1037.0527777777777, L
373595, 1037.763888888889, L
373849, 1038.4694444444444, L
374076, 1039.1, V
374345, 1039.8472222222222, L
374608, 1040.5777777777778, L
374883, 1041.3416666666667, L
375151, 1042.0861111111112, L
375410, 1042.8055555555557, L
375666, 1043.5166666666667, L
375914, 1044.2055555555555, L
376168, 1044.911111111111, L
376419, 1045.6083333333333, L
376670, 1046.3055555555557, L
376938, 1047.05, L
377215, 1047.8194444444443, L
377480, 1048.5555555555557, L
377732, 1049.2555555555555, L
377985, 1049.9583333333333, L
378232, 1050.6444444444444, L
378486, 1051.35, L
378741, 1052.0583333333334, L
378998, 1052.7722222222221, L
379269, 1053.525, L
379545, 1054.2916666666667, L
379805, 1055.013888888889, L
380052, 1055.7, L
380303, 1056.3972222222221, L
380553, 1057.0916666666667, L
380810, 1057.8055555555557, L
381071, 1058.5305555555556, L
381279, 1059.1083333333333, V
381610, 1060.0277777777778, L
381884, 1060.7888888888888, L
382146, 1061.5166666666667, L
382394, 1062.2055555555555, L
382645, 1062.9027777777778, L
382901, 1063.6138888888888, L
383166, 1064.35, L
383430, 1065.0833333333333, L
383693, 1065.8138888888889, L
383961, 1066.5583333333334, L
384226, 1067.2944444444445, L
384477, 1067.9916666666666, L
384723, 1068.675, L
384973, 1069.3694444444445, L
385229, 1070.0805555555555, L
385503, 1070.8416666666667, L
385769, 1071.5805555555555, L
386028, 1072.3, L
386294, 1073.0388888888888, L
386550, 1073.75, L
386797, 1074.4361111111111, L
387039, 1075.1083333333333, L
387292, 1075.8111111111111, L
387553, 1076.536111111111, L
387823, 1077.286111111111, L
388088, 1078.0222222222221, L
388344, 1078.7333333333333, L
388606, 1079.4611111111112, L
388860, 1080.1666666666667, L
389109, 1080.8583333333333, L
389356, 1081.5444444444445, L
389616, 1082.2666666666667, L
389886, 1083.0166666666667, L
390162, 1083.7833333333333, L
390426, 1084.5166666666667, L
390679, 1085.2194444444444, L
390938, 1085.9388888888889, L
391190, 1086.638888888889, L
391441, 1087.3361111111112, L
391694, 1088.0388888888888, L
391914, 1088.65, V
392227, 1089.5194444444444, L
392499, 1090.275, L
392759, 1090.9972222222223, L
393005, 1091.6805555555557, L
393261, 1092.3916666666667, L
393515, 1093.0972222222222, L
393767, 1093.7972222222222, L
394022, 1094.5055555555555, L
394289, 1095.2472222222223, L
394504, 1095.8444444444444, V
394830, 1096.75, L
395080, 1097.4444444444443, L
395327, 1098.1305555555555, L
395585, 1098.8472222222222, L
395841, 1099.5583333333334, L
396095, 1100.263888888889, L
396355, 1100.986111111111, L
396621, 1101.725, L
396888, 1102.4666666666667, L
397153, 1103.2027777777778, L
397405, 1103.9027777777778, L
397650, 1104.5833333333333, L
397907, 1105.2972222222222, L
398167, 1106.0194444444444, L
398397, 1106.6583333333333, V
398697, 1107.4916666666666, L
398963, 1108.2305555555556, L
399230, 1108.9722222222222, L
399489, 1109.6916666666666, L
399738, 1110.3833333333334, L
399984, 1111.0666666666666, L
400241, 1111.7805555555556, L
400506, 1112.5166666666667, L
400776, 1113.2666666666667, L
401038, 1113.9944444444445, L
401302, 1114.7277777777779, L
401561, 1115.4472222222223, L
401819, 1116.1638888888888, L
402068, 1116.8555555555556, L
402317, 1117.5472222222222, L
402578, 1118.2722222222221, L
402852, 1119.0333333333333, L
403119, 1119.775, L
403378, 1120.4944444444445, L
403636, 1121.2111111111112, L
403885, 1121.9027777777778, L
404138, 1122.6055555555556, L
404387, 1123.2972222222222, L
404639, 1123.9972222222223, L
404902, 1124.7277777777779, L
405181, 1125.5027777777777, L
405444, 1126.2333333333333, L
405700, 1126.9444444444443, L
405954, 1127.65, L
406199, 1128.3305555555555, L
406453, 1129.036111111111, L
406708, 1129.7444444444445, L
406966, 1130.4611111111112, L
407229, 1131.1916666666666, L
407507, 1131.963888888889, L
407773, 1132.7027777777778, L
407958, 1133.2166666666667, V
408273, 1134.0916666666667, L
408519, 1134.775, L
408781, 1135.5027777777777, L
409041, 1136.225, L
409309, 1136.9694444444444, L
409574, 1137.7055555555555, L
409853, 1138.4805555555556, L
410115, 1139.2083333333333, L
410362, 1139.8944444444444, L
410612, 1140.588888888889, L
410862, 1141.2833333333333, L
411125, 1142.013888888889, L
411350, 1142.638888888889, V
411657, 1143.4916666666666, L
411923, 1144.2305555555556, L
412201, 1145.0027777777777, L
412454, 1145.7055555555555, L
412699, 1146.3861111111112, L
412950, 1147.0833333333333, L
413201, 1147.7805555555556, L
413467, 1148.5194444444444, L
413733, 1149.2583333333334, L
413996, 1149.9888888888888, L
414260, 1150.7222222222222, L
414527, 1151.463888888889, L
414773, 1152.1472222222221, L
415016, 1152.8222222222223, L
415265, 1153.513888888889, L
415517, 1154.213888888889, L
415783, 1154.9527777777778, L
416051, 1155.6972222222223, L
416313, 1156.425, L
416568, 1157.1333333333334, L
416829, 1157.8583333333333, L
417077, 1158.5472222222222, L
417320, 1159.2222222222222, L
417571, 1159.9194444444445, L
417828, 1160.6333333333334, L
418098, 1161.3833333333334, L
418365, 1162.125, L
418624, 1162.8444444444444, L
418875, 1163.5416666666667, L
419132, 1164.2555555555555, L
419380, 1164.9444444444443, L
419624, 1165.6222222222223, L
419877, 1166.325, L
420137, 1167.0472222222222, L
420372, 1167.7, V
420673, 1168.536111111111, L
420930, 1169.25, L
421186, 1169.9611111111112, L
421446, 1170.6833333333334, L
421696, 1171.3777777777777, L
421945, 1172.0694444444443, L
422211, 1172.8083333333334, L
422474, 1173.5388888888888, L
422746, 1174.2944444444445, L
423006, 1175.0166666666667, L
423255, 1175.7083333333333, L
423504, 1176.4, L
423762, 1177.1166666666666, L
424014, 1177.8166666666666, L
424268, 1178.5222222222221, L
424536, 1179.2666666666667, L
424799, 1179.9972222222223, L
425067, 1180.7416666666666, L
425326, 1181.4611111111112, L
425574, 1182.15, L
425820, 1182.8333333333333, L
426082, 1183.5611111111111, L
426343, 1184.286111111111, L
426600, 1185.0, L
426866, 1185.7388888888888, L
427130, 1186.4722222222222, L
427394, 1187.2055555555555, L
427644, 1187.9, L
427891, 1188.5861111111112, L
428142, 1189.2833333333333, L
428408, 1190.0222222222221, L
428672, 1190.7555555555555, L
428933, 1191.4805555555556, L
429198, 1192.2166666666667, L
429457, 1192.9361111111111, L
429717, 1193.6583333333333, L
429963, 1194.3416666666667, L
430210, 1195.0277777777778, L
430461, 1195.725, L
430732, 1196.4777777777779, L
430995, 1197.2083333333333, L
431254, 1197.9277777777777, L
431516, 1198.6555555555556, L
431767, 1199.3527777777779, L
432020, 1200.0555555555557, L
432273, 1200.7583333333334, L
432521, 1201.4472222222223, L
432772, 1202.1444444444444, L
433048, 1202.911111111111, L
433316, 1203.6555555555556, L
433574, 1204.3722222222223, L
433833, 1205.0916666666667, L
434084, 1205.7888888888888, L
434337, 1206.4916666666666, L
434597, 1207.213888888889, L
434850, 1207.9166666666667, L
435104, 1208.6222222222223, L
435382, 1209.3944444444444, L
435652, 1210.1444444444444, L
435911, 1210.8638888888888, L
436162, 1211.5611111111111, L
436413, 1212.2583333333334, L
436667, 1212.963888888889, L
436925, 1213.6805555555557, L
437183, 1214.3972222222221, L
437442, 1215.1166666666666, L
437715, 1215.875, L
437982, 1216.6166666666666, L
438239, 1217.3305555555555, L
438486, 1218.0166666666667, L
438737, 1218.713888888889, L
438992, 1219.4222222222222, L
439255, 1220.1527777777778, L
439516, 1220.8777777777777, L
439779, 1221.6083333333333, L
440051, 1222.3638888888888, L
440316, 1223.1, L
440570, 1223.8055555555557, L
440817, 1224.4916666666666, L
441068, 1225.1888888888889, L
441326, 1225.9055555555556, L
441596, 1226.6555555555556, L
441862, 1227.3944444444444, L
442122, 1228.1166666666666, L
442391, 1228.8638888888888, L
442651, 1229.5861111111112, L
442898, 1230.2722222222221, L
443140, 1230.9444444444443, L
443393, 1231.6472222222221, L
443651, 1232.3638888888888, L
443922, 1233.1166666666666, L
444182, 1233.838888888889, L
444439, 1234.5527777777777, L
444707, 1235.2972222222222, L
444964, 1236.0111111111112, L
445212, 1236.7, L
445457, 1237.3805555555555, L
445716, 1238.1, L
445984, 1238.8444444444444, L
446259, 1239.6083333333333, L
446522, 1240.338888888889, L
446777, 1241.0472222222222, L
447036, 1241.7666666666667, L
447289, 1242.4694444444444, L
447537, 1243.1583333333333, L
447786, 1243.85, L
448046, 1244.5722222222223, L
448318, 1245.3277777777778, L
448593, 1246.0916666666667, L
448854, 1246.8166666666666, L
449104, 1247.5111111111112, L
449363, 1248.2305555555556, L
449617, 1248.9361111111111, L
449868, 1249.6333333333334, L
450124, 1250.3444444444444, L
450387, 1251.075, L
450656, 1251.8222222222223, L
450930, 1252.5833333333333, L
451186, 1253.2944444444445, L
451429, 1253.9694444444444, L
451687, 1254.6861111111111, L
451937, 1255.3805555555555, L
452190, 1256.0833333333333, L
452453, 1256.8138888888889, L
452721, 1257.5583333333334, L
452992, 1258.3111111111111, L
453260, 1259.0555555555557, L
453513, 1259.7583333333334, L
453759, 1260.4416666666666, L
454021, 1261.1694444444445, L
454276, 1261.8777777777777, L
454532, 1262.588888888889, L
454798, 1263.3277777777778, L
455065, 1264.0694444444443, L
455334, 1264.8166666666666, L
455591, 1265.5305555555556, L
455839, 1266.2194444444444, L
456086, 1266.9055555555556, L
456346, 1267.6277777777777, L
456605, 1268.3472222222222, L
456867, 1269.075, L
457133, 1269.8138888888889, L
457392, 1270.5333333333333, L
457656, 1271.2666666666667, L
457910, 1271.9722222222222, L
458156, 1272.6555555555556, L
458401, 1273.3361111111112, L
458666, 1274.0722222222223, L
458930, 1274.8055555555557, L
459189, 1275.525, L
459453, 1276.2583333333334, L
459711, 1276.975, L
459967, 1277.6861111111111, L
460219, 1278.3861111111112, L
460466, 1279.0722222222223, L
460714, 1279.7611111111112, L
460987, 1280.5194444444444, L
461254, 1281.2611111111112, L
461512, 1281.9777777777779, L
461775, 1282.7083333333333, L
462029, 1283.4138888888888, L
462282, 1284.1166666666666, L
462534, 1284.8166666666666, L
462785, 1285.513888888889, L
463034, 1286.2055555555555, L
463306, 1286.9611111111112, L
463574, 1287.7055555555555, L
463833, 1288.425, L
464088, 1289.1333333333334, L
464337, 1289.825, L
464589, 1290.525, L
464844, 1291.2333333333333, L
465096, 1291.9333333333334, L
465350, 1292.638888888889, L
465620, 1293.388888888889, L
465888, 1294.1333333333334, L
466149, 1294.8583333333333, L
466396, 1295.5444444444445, L
466641, 1296.225, L
466890, 1296.9166666666667, L
467146, 1297.6277777777777, L
467397, 1298.325, L
467652, 1299.0333333333333, L
467919, 1299.775, L
468191, 1300.5305555555556, L
468447, 1301.2416666666666, L
468690, 1301.9166666666667, L
468938, 1302.6055555555556, L
469186, 1303.2944444444445, L
469444, 1304.0111111111112, L
469705, 1304.736111111111, L
469968, 1305.4666666666667, L
470237, 1306.213888888889, L
470509, 1306.9694444444444, L
470762, 1307.6722222222222, L
471005, 1308.3472222222222, L
471257, 1309.0472222222222, L
471508, 1309.7444444444445, L
471773, 1310.4805555555556, L
472040, 1311.2222222222222, L
472305, 1311.9583333333333, L
472568, 1312.6888888888889, L
472838, 1313.4388888888889, L
473090, 1314.138888888889, L
473334, 1314.8166666666666, L
473586, 1315.5166666666667, L
473842, 1316.2277777777779, L
474074, 1316.8722222222223, V
474381, 1317.725, L
474645, 1318.4583333333333, L
474903, 1319.175, L
475167, 1319.9083333333333, L
475420, 1320.611111111111, L
475661, 1321.2805555555556, L
475914, 1321.9833333333333, L
476174, 1322.7055555555555, L
476448, 1323.4666666666667, L
476713, 1324.2027777777778, L
476971, 1324.9194444444445, L
477224, 1325.6222222222223, L
477484, 1326.3444444444444, L
477732, 1327.0333333333333, L
477977, 1327.713888888889, L
478235, 1328.4305555555557, L
478495, 1329.1527777777778, L
478767, 1329.9083333333333, L
479032, 1330.6444444444444, L
479284, 1331.3444444444444, L
479534, 1332.0388888888888, L
479793, 1332.7583333333334, L
480045, 1333.4583333333333, L
480295, 1334.1527777777778, L
480559, 1334.8861111111112, L
480823, 1335.6194444444445, L
481091, 1336.3638888888888, L
481353, 1337.0916666666667, L
481604, 1337.7888888888888, L
481850, 1338.4722222222222, L
482110, 1339.1944444444443, L
482362, 1339.8944444444444, L
482615, 1340.5972222222222, L
482881, 1341.3361111111112, L
483144, 1342.0666666666666, L
483411, 1342.8083333333334, L
483665, 1343.513888888889, L
483912, 1344.2, L
484159, 1344.8861111111112, L
484419, 1345.6083333333333, L
484677, 1346.325, L
484933, 1347.036111111111, L
485197, 1347.7694444444444, L
485459, 1348.4972222222223, L
485722, 1349.2277777777779, L
485970, 1349.9166666666667, L
486213, 1350.5916666666667, L
486461, 1351.2805555555556, L
486725, 1352.013888888889, L
486984, 1352.7333333333333, L
487240, 1353.4444444444443, L
487504, 1354.1777777777777, L
487761, 1354.8916666666667, L
488020, 1355.611111111111, L
488270, 1356.3055555555557, L
488514, 1356.9833333333333, L
488764, 1357.6777777777777, L
489033, 1358.425, L
489298, 1359.161111111111, L
489556, 1359.8777777777777, L
489819, 1360.6083333333333, L
490074, 1361.3166666666666, L
490327, 1362.0194444444444, L
490576, 1362.7111111111112, L
490824, 1363.4, L
491074, 1364.0944444444444, L
491349, 1364.8583333333333, L
491618, 1365.6055555555556, L
491875, 1366.3194444444443, L
492132, 1367.0333333333333, L
492383, 1367.7305555555556, L
492638, 1368.4388888888889, L
492886, 1369.1277777777777, L
493135, 1369.8194444444443, L
493391, 1370.5305555555556, L
493669, 1371.3027777777777, L
493932, 1372.0333333333333, L
494186, 1372.7388888888888, L
494439, 1373.4416666666666, L
494683, 1374.1194444444445, L
494935, 1374.8194444444443, L
495188, 1375.5222222222221, L
495441, 1376.225, L
495701, 1376.9472222222223, L
495976, 1377.7111111111112, L
496239, 1378.4416666666666, L
496493, 1379.1472222222221, L
496742, 1379.838888888889, L
496989, 1380.525, L
497241, 1381.225, L
497503, 1381.9527777777778, L
497763, 1382.675, L
498022, 1383.3944444444444, L
498295, 1384.1527777777778, L
498557, 1384.8805555555555, L
498809, 1385.5805555555555, L
499053, 1386.2583333333334, L
499301, 1386.9472222222223, L
499556, 1387.6555555555556, L
499822, 1388.3944444444444, L
500088, 1389.1333333333334, L
500346, 1389.85, L
500615, 1390.5972222222222, L
500879, 1391.3305555555555, L
501129, 1392.025, L
501368, 1392.6888888888889, L
501619, 1393.3861111111112, L
501876, 1394.1, L
502140, 1394.8333333333333, L
502402, 1395.5611111111111, L
502662, 1396.2833333333333, L
502925, 1397.013888888889, L
503179, 1397.7194444444444, L
503425, 1398.4027777777778, L
503667, 1399.075, L
503919, 1399.775, L
504178, 1400.4944444444445, L
504449, 1401.2472222222223, L
504712, 1401.9777777777779, L
504973, 1402.7027777777778, L
505231, 1403.4194444444445, L
505491, 1404.1416666666667, L
505739, 1404.8305555555555, L
505984, 1405.5111111111112, L
506242, 1406.2277777777779, L
506504, 1406.9555555555555, L
506778, 1407.7166666666667, L
507045, 1408.4583333333333, L
507299, 1409.1638888888888, L
507550, 1409.861111111111, L
507812, 1410.588888888889, L
508065, 1411.2916666666667, L
508310, 1411.9722222222222, L
508576, 1412.7111111111112, L
508840, 1413.4444444444443, L
509111, 1414.1972222222223, L
509374, 1414.9277777777777, L
509624, 1415.6222222222223, L
509874, 1416.3166666666666, L
510135, 1417.0416666666667, L
510389, 1417.7472222222223, L
510642, 1418.45, L
510907, 1419.1861111111111, L
511144, 1419.8444444444444, V
511443, 1420.675, L
511698, 1421.3833333333334, L
511950, 1422.0833333333333, L
512202, 1422.7833333333333, L
512464, 1423.5111111111112, L
512723, 1424.2305555555556, L
512984, 1424.9555555555555, L
513251, 1425.6972222222223, L
513516, 1426.4333333333334, L
513781, 1427.1694444444445, L
514030, 1427.861111111111, L
514275, 1428.5416666666667, L
514527, 1429.2416666666666, L
514788, 1429.9666666666667, L
515048, 1430.6888888888889, L
515309, 1431.4138888888888, L
515575, 1432.1527777777778, L
515833, 1432.8694444444445, L
516093, 1433.5916666666667, L
516340, 1434.2777777777778, L
516583, 1434.9527777777778, L
516837, 1435.6583333333333, L
517103, 1436.3972222222221, L
517368, 1437.1333333333334, L
517624, 1437.8444444444444, L
517889, 1438.5805555555555, L
518145, 1439.2916666666667, L
518398, 1439.9944444444445, L
518644, 1440.6777777777777, L
518887, 1441.3527777777779, L
519142, 1442.0611111111111, L
519412, 1442.8111111111111, L
519678, 1443.55, L
519935, 1444.263888888889, L
520195, 1444.986111111111, L
520447, 1445.6861111111111, L
520699, 1446.3861111111112, L
520945, 1447.0694444444443, L
521194, 1447.7611111111112, L
521455, 1448.486111111111, L
521728, 1449.2444444444445, L
521995, 1449.986111111111, L
522255, 1450.7083333333333, L
522512, 1451.4222222222222, L
522759, 1452.1083333333333, L
523012, 1452.8111111111111, L
523263, 1453.5083333333334, L
523514, 1454.2055555555555, L
523777, 1454.9361111111111, L
524051, 1455.6972222222223, L
524267, 1456.2972222222222, V
524564, 1457.1222222222223, L
524813, 1457.8138888888889, L
525055, 1458.486111111111, L
525307, 1459.1861111111111, L
525555, 1459.875, L
525806, 1460.5722222222223, L
526065, 1461.2916666666667, L
526336, 1462.0444444444445, L
526592, 1462.7555555555555, L
526831, 1463.4194444444445, L
527072, 1464.088888888889, L
527313, 1464.7583333333334, L
527560, 1465.4444444444443, L
527810, 1466.138888888889, L
528067, 1466.8527777777779, L
528321, 1467.5583333333334, L
528587, 1468.2972222222222, L
528842, 1469.0055555555555, L
529085, 1469.6805555555557, L
529324, 1470.3444444444444, L
529561, 1471.0027777777777, L
529806, 1471.6833333333334, L
530053, 1472.3694444444445, L
530302, 1473.0611111111111, L
530549, 1473.7472222222223, L
530798, 1474.4388888888889, L
531050, 1475.138888888889, L
531280, 1475.7777777777778, L
531504, 1476.4, L
531718, 1476.9944444444445, L
531934, 1477.5944444444444, L
532155, 1478.2083333333333, L
532383, 1478.8416666666667, L
532622, 1479.5055555555555, L
532868, 1480.1888888888889, L
533107, 1480.8527777777779, L
533357, 1481.5472222222222, L
533584, 1482.1777777777777, L
533814, 1482.8166666666666, L
534042, 1483.45, L
534278, 1484.1055555555556, L
534520, 1484.7777777777778, L
534769, 1485.4694444444444, L
535013, 1486.1472222222221, L
535253, 1486.8138888888889, L
535490, 1487.4722222222222, L
535736, 1488.1555555555556, L
535968, 1488.8, L
536199, 1489.4416666666666, L
536441, 1490.1138888888888, L
536693, 1490.8138888888889, L
536955, 1491.5416666666667, L
537219, 1492.275, L
537467, 1492.963888888889, L
537705, 1493.625, L
537950, 1494.3055555555557, L
538196, 1494.9888888888888, L
538438, 1495.661111111111, L
538680, 1496.3333333333333, L
538938, 1497.05, L
539196, 1497.7666666666667, L
539456, 1498.4888888888888, L
539706, 1499.1833333333334, L
539948, 1499.8555555555556, L
540193, 1500.536111111111, L
540450, 1501.25, L
540705, 1501.9583333333333, L
540960, 1502.6666666666667, L
541229, 1503.4138888888888, L
541497, 1504.1583333333333, L
541770, 1504.9166666666667, L
542027, 1505.6305555555555, L
542278, 1506.3277777777778, L
542539, 1507.0527777777777, L
542807, 1507.7972222222222, L
543073, 1508.536111111111, L
543342, 1509.2833333333333, L
543614, 1510.0388888888888, L
543886, 1510.7944444444445, L
544156, 1511.5444444444445, L
544412, 1512.2555555555555, L
544663, 1512.9527777777778, L
544932, 1513.7, L
545162, 1514.338888888889, V
545476, 1515.2111111111112, L
545745, 1515.9583333333333, L
546014, 1516.7055555555555, L
546275, 1517.4305555555557, L
546533, 1518.1472222222221, L
546782, 1518.838888888889, L
547028, 1519.5222222222221, L
547291, 1520.2527777777777, L
547558, 1520.9944444444445, L
547818, 1521.7166666666667, L
548083, 1522.4527777777778, L
548340, 1523.1666666666667, L
548598, 1523.8833333333334, L
548855, 1524.5972222222222, L
549107, 1525.2972222222222, L
549361, 1526.0027777777777, L
549639, 1526.775, L
549912, 1527.5333333333333, L
550178, 1528.2722222222221, L
550442, 1529.0055555555555, L
550694, 1529.7055555555555, L
550957, 1530.4361111111111, L
551213, 1531.1472222222221, L
551469, 1531.8583333333333, L
551737, 1532.6027777777779, L
552023, 1533.3972222222221, L
552296, 1534.1555555555556, L
552557, 1534.8805555555555, L
552821, 1535.6138888888888, L
553076, 1536.3222222222223, L
553337, 1537.0472222222222, L
553595, 1537.763888888889, L
553858, 1538.4944444444445, L
554135, 1539.263888888889, L
554416, 1540.0444444444445, L
554686, 1540.7944444444445, L
554943, 1541.5083333333334, L
555203, 1542.2305555555556, L
555464, 1542.9555555555555, L
555731, 1543.6972222222223, L
555998, 1544.4388888888889, L
556269, 1545.1916666666666, L
556554, 1545.9833333333333, L
556833, 1546.7583333333334, L
557093, 1547.4805555555556, L
557349, 1548.1916666666666, L
557606, 1548.9055555555556, L
557875, 1549.6527777777778, L
558145, 1550.4027777777778, L
558413, 1551.1472222222221, L
558685, 1551.9027777777778, L
558970, 1552.6944444444443, L
559232, 1553.4222222222222, L
559484, 1554.1222222222223, L
559738, 1554.8277777777778, L
559992, 1555.5333333333333, L
560261, 1556.2805555555556, L
560531, 1557.0305555555556, L
560801, 1557.7805555555556, L
561067, 1558.5194444444444, L
561340, 1559.2777777777778, L
561592, 1559.9777777777779, L
561837, 1560.6583333333333, L
562091, 1561.3638888888888, L
562344, 1562.0666666666666, L
562613, 1562.8138888888889, L
562884, 1563.5666666666666, L
563152, 1564.3111111111111, L
563410, 1565.0277777777778, L
563677, 1565.7694444444444, L
563929, 1566.4694444444444, L
564173, 1567.1472222222221, L
564427, 1567.8527777777779, L
564681, 1568.5583333333334, L
564949, 1569.3027777777777, L
565213, 1570.036111111111, L
565466, 1570.7388888888888, L
565592, 1571.088888888889, ~
565712, 1571.4222222222222, L
565954, 1572.0944444444444, L
566184, 1572.7333333333333, L
566420, 1573.388888888889, L
566644, 1574.0111111111112, L
566894, 1574.7055555555555, L
567140, 1575.388888888889, L
567396, 1576.1, L
567630, 1576.75, L
567874, 1577.4277777777777, L
568101, 1578.0583333333334, L
568347, 1578.7416666666666, L
568574, 1579.3722222222223, L
568811, 1580.0305555555556, L
569051, 1580.6972222222223, L
569300, 1581.388888888889, L
569544, 1582.0666666666666, L
569796, 1582.7666666666667, L
570031, 1583.4194444444445, L
570255, 1584.0416666666667, L
570513, 1584.7583333333334, L
570647, 1585.1305555555555, ~
570751, 1585.4194444444445, L
570986, 1586.0722222222223, L
571220, 1586.7222222222222, L
571465, 1587.4027777777778, L
571705, 1588.0694444444443, L
571936, 1588.7111111111112, L
572177, 1589.3805555555555, L
572405, 1590.013888888889, L
572629, 1590.6361111111112, L
572868, 1591.3, L
573115, 1591.986111111111, L
573365, 1592.6805555555557, L
573612, 1593.3666666666666, L
573869, 1594.0805555555555, L
574122, 1594.7833333333333, L
574373, 1595.4805555555556, L
574620, 1596.1666666666667, L
574863, 1596.8416666666667, L
575112, 1597.5333333333333, L
575382, 1598.2833333333333, L
575649, 1599.025, L
575909, 1599.7472222222223, L
576174, 1600.4833333333333, L
576435, 1601.2083333333333, L
576693, 1601.925, L
576943, 1602.6194444444445, L
577193, 1603.3138888888889, L
577454, 1604.0388888888888, L
577731, 1604.8083333333334, L
578001, 1605.5583333333334, L
578267, 1606.2972222222222, L
578531, 1607.0305555555556, L
578788, 1607.7444444444445, L
579048, 1608.4666666666667, L
579302, 1609.1722222222222, L
579553, 1609.8694444444445, L
579826, 1610.6277777777777, L
580104, 1611.4, L
580349, 1612.0805555555555, V
580630, 1612.861111111111, L
580883, 1613.5638888888889, L
581138, 1614.2722222222221, L
581397, 1614.9916666666666, L
581646, 1615.6833333333334, L
581896, 1616.3777777777777, L
582167, 1617.1305555555555, L
582442, 1617.8944444444444, L
582703, 1618.6194444444445, L
582955, 1619.3194444444443, L
583206, 1620.0166666666667, L
583457, 1620.713888888889, L
583668, 1621.3, V
583973, 1622.1472222222221, L
584231, 1622.8638888888888, L
584515, 1623.6527777777778, L
584782, 1624.3944444444444, L
585044, 1625.1222222222223, L
585297, 1625.825, L
585553, 1626.536111111111, L
585814, 1627.2611111111112, L
586079, 1627.9972222222223, L
586347, 1628.7416666666666, L
586619, 1629.4972222222223, L
586896, 1630.2666666666667, L
587163, 1631.0083333333334, L
587416, 1631.7111111111112, L
587670, 1632.4166666666667, L
587918, 1633.1055555555556, L
588180, 1633.8333333333333, L
588448, 1634.5777777777778, L
588716, 1635.3222222222223, L
588982, 1636.0611111111111, L
589259, 1636.8305555555555, L
589521, 1637.5583333333334, L
589768, 1638.2444444444445, L
590021, 1638.9472222222223, L
590272, 1639.6444444444444, L
590538, 1640.3833333333334, L
590814, 1641.15, L
591084, 1641.9, L
591357, 1642.6583333333333, L
591634, 1643.4277777777777, L
591893, 1644.1472222222221, L
592145, 1644.8472222222222, L
592410, 1645.5833333333333, L
592681, 1646.3361111111112, L
592962, 1647.1166666666666, L
593235, 1647.875, L
593508, 1648.6333333333334, L
593782, 1649.3944444444444, L
594045, 1650.125, L
594305, 1650.8472222222222, L
594563, 1651.5638888888889, L
594830, 1652.3055555555557, L
595113, 1653.0916666666667, L
595398, 1653.8833333333334, L
595672, 1654.6444444444444, L
595934, 1655.3722222222223, L
596173, 1656.036111111111, V
596459, 1656.8305555555555, L
596712, 1657.5333333333333, L
596980, 1658.2777777777778, L
597247, 1659.0194444444444, L
597529, 1659.8027777777777, L
597807, 1660.575, L
598070, 1661.3055555555557, L
598323, 1662.0083333333334, L
598589, 1662.7472222222223, L
598847, 1663.463888888889, L
599102, 1664.1722222222222, L
599370, 1664.9166666666667, L
599638, 1665.661111111111, L
599915, 1666.4305555555557, L
600183, 1667.175, L
600441, 1667.8916666666667, L
600692, 1668.588888888889, L
600964, 1669.3444444444444, L
601228, 1670.0777777777778, L
601491, 1670.8083333333334, L
601765, 1671.5694444444443, L
602037, 1672.325, L
602310, 1673.0833333333333, L
602568, 1673.8, L
602818, 1674.4944444444445, L
603073, 1675.2027777777778, L
603342, 1675.95, L
603548, 1676.5222222222221, V
603876, 1677.4333333333334, L
604143, 1678.175, L
604418, 1678.9388888888889, L
604683, 1679.675, L
604935, 1680.375, L
605185, 1681.0694444444443, L
605449, 1681.8027777777777, L
605725, 1682.5694444444443, L
606000, 1683.3333333333333, L
606265, 1684.0694444444443, L
606534, 1684.8166666666666, L
606800, 1685.5555555555557, L
607064, 1686.2888888888888, L
607313, 1686.9805555555556, L
607560, 1687.6666666666667, L
607838, 1688.4388888888889, L
608075, 1689.0972222222222, V
608385, 1689.9583333333333, L
608652, 1690.7, L
608919, 1691.4416666666666, L
609182, 1692.1722222222222, L
609445, 1692.9027777777778, L
609701, 1693.6138888888888, L
609961, 1694.3361111111112, L
610251, 1695.1416666666667, L
610526, 1695.9055555555556, L
610793, 1696.6472222222221, L
611058, 1697.3833333333334, L
611319, 1698.1083333333333, L
611583, 1698.8416666666667, L
611848, 1699.5777777777778, L
612114, 1700.3166666666666, L
612389, 1701.0805555555555, L
612671, 1701.8638888888888, L
612946, 1702.6277777777777, L
613205, 1703.3472222222222, L
613460, 1704.0555555555557, L
613718, 1704.7722222222221, L
613984, 1705.5111111111112, L
614247, 1706.2416666666666, L
614517, 1706.9916666666666, L
614803, 1707.786111111111, L
615079, 1708.5527777777777, L
615342, 1709.2833333333333, L
615604, 1710.0111111111112, L
615863, 1710.7305555555556, L
616131, 1711.475, L
616402, 1712.2277777777779, L
616677, 1712.9916666666666, L
616956, 1713.7666666666667, L
617245, 1714.5694444444443, L
617510, 1715.3055555555557, L
617765, 1716.013888888889, L
618027, 1716.7416666666666, L
618288, 1717.4666666666667, L
618558, 1718.2166666666667, L
618828, 1718.9666666666667, L
619101, 1719.725, L
619379, 1720.4972222222223, L
619650, 1721.25, L
619905, 1721.9583333333333, L
620157, 1722.6583333333333, L
620413, 1723.3694444444445, L
620679, 1724.1083333333333, L
620953, 1724.8694444444445, L
621226, 1725.6277777777777, L
621493, 1726.3694444444445, L
621770, 1727.138888888889, L
622031, 1727.8638888888888, L
622283, 1728.5638888888889, L
622542, 1729.2833333333333, L
622804, 1730.0111111111112, L
623082, 1730.7833333333333, L
623361, 1731.5583333333334, L
623633, 1732.3138888888889, L
623903, 1733.0638888888889, L
624176, 1733.8222222222223, L
624430, 1734.5277777777778, L
624680, 1735.2222222222222, L
624945, 1735.9583333333333, L
625211, 1736.6972222222223, L
625491, 1737.475, L
625762, 1738.2277777777779, L
626028, 1738.9666666666667, L
626294, 1739.7055555555555, L
626561, 1740.4472222222223, L
626820, 1741.1666666666667, L
627074, 1741.8722222222223, L
627349, 1742.6361111111112, L
627628, 1743.411111111111, L
627910, 1744.1944444444443, L
628183, 1744.9527777777778, L
628440, 1745.6666666666667, L
628703, 1746.3972222222221, L
628971, 1747.1416666666667, L
629232, 1747.8666666666666, L
629499, 1748.6083333333333, L
629775, 1749.375, L
630056, 1750.1555555555556, L
630339, 1750.9416666666666, L
630602, 1751.6722222222222, L
630858, 1752.3833333333334, L
631126, 1753.1277777777777, L
631392, 1753.8666666666666, L
631628, 1754.5222222222221, V
631940, 1755.388888888889, L
632215, 1756.1527777777778, L
632495, 1756.9305555555557, L
632756, 1757.6555555555556, L
633012, 1758.3666666666666, L
633265, 1759.0694444444443, L
633534, 1759.8166666666666, L
633798, 1760.55, L
634064, 1761.2888888888888, L
634338, 1762.05, L
634604, 1762.7888888888888, L
634871, 1763.5305555555556, L
635129, 1764.2472222222223, L
635384, 1764.9555555555555, L
635645, 1765.6805555555557, L
635922, 1766.45, L
636195, 1767.2083333333333, L
636467, 1767.963888888889, L
636744, 1768.7333333333333, L
637009, 1769.4694444444444, L
637271, 1770.1972222222223, L
637531, 1770.9194444444445, L
637787, 1771.6305555555555, L
638058, 1772.3833333333334, L
638342, 1773.1722222222222, L
638618, 1773.9388888888889, L
638887, 1774.6861111111111, L
639157, 1775.4361111111111, L
639423, 1776.175, L
639689, 1776.9138888888888, L
639949, 1777.6361111111112, L
640215, 1778.375, L
640494, 1779.15, L
640762, 1779.8944444444444, L
641017, 1780.6027777777779, L
641264, 1781.2888888888888, L
641504, 1781.9555555555555, L
641748, 1782.6333333333334, L
642007, 1783.3527777777779, L
642248, 1784.0222222222221, L
642491, 1784.6972222222223, L
642740, 1785.388888888889, L
642992, 1786.088888888889, L
643243, 1786.786111111111, L
643485, 1787.4583333333333, L
643720, 1788.111111111111, L
643959, 1788.775, L
644205, 1789.4583333333333, L
644455, 1790.1527777777778, L
644701, 1790.8361111111112, L
644961, 1791.5583333333334, L
645227, 1792.2972222222222, L
645483, 1793.0083333333334, L
645723, 1793.675, L
645965, 1794.3472222222222, L
646206, 1795.0166666666667, L
646459, 1795.7194444444444, L
646719, 1796.4416666666666, L
646982, 1797.1722222222222, L
647252, 1797.9222222222222, L
647528, 1798.6888888888889, L
647790, 1799.4166666666667, L
648042, 1800.1166666666666, L
648297, 1800.825, L
648559, 1801.5527777777777, L
648784, 1802.1777777777777, V
649109, 1803.0805555555555, L
649378, 1803.8277777777778, L
649663, 1804.6194444444445, L
649931, 1805.3638888888888, L
