31, 0.08611111111111111, +
197, 0.5472222222222223, L
489, 1.3583333333333334, L
804, 2.2333333333333334, L
1127, 3.1305555555555555, L
1430, 3.9722222222222223, L
1739, 4.830555555555556, L
2040, 5.666666666666667, L
2344, 6.511111111111111, L
2641, 7.336111111111111, L
2961, 8.225, L
3278, 9.105555555555556, L
3579, 9.941666666666666, L
3887, 10.797222222222222, L
4195, 11.652777777777779, L
4494, 12.483333333333333, L
4786, 13.294444444444444, L
5101, 14.169444444444444, L
5419, 15.052777777777777, L
5725, 15.902777777777779, L
6044, 16.788888888888888, L
6343, 17.619444444444444, L
6638, 18.43888888888889, L
6934, 19.261111111111113, L
7261, 20.169444444444444, L
7578, 21.05, L
7884, 21.9, L
8195, 22.76388888888889, L
8499, 23.608333333333334, L
8802, 24.45, L
9104, 25.288888888888888, L
9423, 26.175, L
9733, 27.03611111111111, L
10042, 27.894444444444446, L
10362, 28.783333333333335, L
10669, 29.636111111111113, L
10970, 30.47222222222222, L
11275, 31.319444444444443, L
11603, 32.230555555555554, L
11935, 33.15277777777778, L
12253, 34.03611111111111, L
12573, 34.925, L
12888, 35.8, L
13196, 36.65555555555556, L
13512, 37.53333333333333, L
13845, 38.458333333333336, L
14167, 39.352777777777774, L
14480, 40.22222222222222, L
14799, 41.108333333333334, L
15102, 41.95, L
15402, 42.78333333333333, L
15717, 43.65833333333333, L
16033, 44.53611111111111, L
16360, 45.44444444444444, L
16663, 46.28611111111111, L
16973, 47.147222222222226, L
17273, 47.980555555555554, L
17565, 48.791666666666664, L
17886, 49.68333333333333, L
18209, 50.580555555555556, L
18516, 51.43333333333333, L
18821, 52.28055555555556, L
19143, 53.175, L
19450, 54.02777777777778, L
19749, 54.858333333333334, L
20070, 55.75, L
20395, 56.65277777777778, L
20720, 57.55555555555556, L
21033, 58.425, L
21347, 59.297222222222224, L
21653, 60.147222222222226, L
21954, 60.983333333333334, L
22285, 61.90277777777778, L
22615, 62.81944444444444, L
22942, 63.727777777777774, L
23253, 64.59166666666667, L
23567, 65.46388888888889, L
23876, 66.32222222222222, L
24182, 67.17222222222222, L
24502, 68.06111111111112, L
24829, 68.96944444444445, L
25137, 69.825, L
25454, 70.70555555555555, L
25766, 71.57222222222222, L
26066, 72.40555555555555, L
26370, 73.25, L
26695, 74.15277777777777, L
27031, 75.08611111111111, L
27355, 75.98611111111111, L
27674, 76.87222222222222, L
27983, 77.73055555555555, L
28299, 78.60833333333333, L
28621, 79.50277777777778, L
28954, 80.42777777777778, L
29283, 81.34166666666667, L
29589, 82.19166666666666, L
29903, 83.06388888888888, L
30213, 83.925, L
30523, 84.78611111111111, L
30835, 85.65277777777777, L
31159, 86.55277777777778, L
31496, 87.4888888888889, L
31813, 88.36944444444444, L
32129, 89.24722222222222, L
32439, 90.10833333333333, L
32743, 90.95277777777778, L
33071, 91.8638888888889, L
33403, 92.78611111111111, L
33726, 93.68333333333334, L
34030, 94.52777777777777, L
34336, 95.37777777777778, L
34648, 96.24444444444444, L
34952, 97.08888888888889, L
35277, 97.99166666666666, L
35604, 98.9, L
35925, 99.79166666666667, L
36242, 100.67222222222222, L
36560, 101.55555555555556, L
36868, 102.41111111111111, L
37170, 103.25, L
37497, 104.15833333333333, L
37826, 105.07222222222222, L
38135, 105.93055555555556, L
38435, 106.76388888888889, L
38734, 107.59444444444445, L
39036, 108.43333333333334, L
39337, 109.26944444444445, L
39667, 110.18611111111112, L
39987, 111.075, L
40298, 111.93888888888888, L
40617, 112.825, L
40930, 113.69444444444444, L
41242, 114.56111111111112, L
41551, 115.41944444444445, L
41875, 116.31944444444444, L
42204, 117.23333333333333, L
42523, 118.11944444444444, L
42842, 119.00555555555556, L
43143, 119.84166666666667, L
43443, 120.675, L
43759, 121.55277777777778, L
44088, 122.46666666666667, L
44411, 123.3638888888889, L
44716, 124.21111111111111, L
45032, 125.08888888888889, L
45343, 125.95277777777778, L
45650, 126.80555555555556, L
45968, 127.68888888888888, L
46301, 128.61388888888888, L
46631, 129.53055555555557, L
46946, 130.40555555555557, L
47258, 131.2722222222222, L
47562, 132.11666666666667, L
47861, 132.94722222222222, L
48187, 133.8527777777778, L
48517, 134.76944444444445, L
48847, 135.6861111111111, L
49150, 136.52777777777777, L
49455, 137.375, L
49763, 138.23055555555555, L
50067, 139.075, L
50390, 139.97222222222223, L
50698, 140.82777777777778, L
51016, 141.7111111111111, L
51321, 142.55833333333334, L
51632, 143.42222222222222, L
51940, 144.27777777777777, L
52237, 145.1027777777778, L
52556, 145.98888888888888, L
52888, 146.9111111111111, L
53209, 147.80277777777778, L
53521, 148.66944444444445, L
53820, 149.5, L
54104, 150.2888888888889, L
54430, 151.19444444444446, L
54760, 152.11111111111111, L
55080, 153.0, L
55391, 153.86388888888888, L
55703, 154.73055555555555, L
56014, 155.59444444444443, L
56316, 156.43333333333334, L
56604, 157.23333333333332, L
56922, 158.11666666666667, L
57238, 158.99444444444444, L
57550, 159.86111111111111, L
57868, 160.74444444444444, L
58171, 161.5861111111111, L
58470, 162.41666666666666, L
58772, 163.25555555555556, L
59097, 164.15833333333333, L
59416, 165.04444444444445, L
59551, 165.41944444444445, ~
59723, 165.8972222222222, L
60036, 166.76666666666668, L
60337, 167.6027777777778, L
60641, 168.44722222222222, L
60780, 168.83333333333334, ~
60939, 169.275, L
61252, 170.14444444444445, L
61567, 171.01944444444445, L
61874, 171.87222222222223, L
62189, 172.74722222222223, L
62489, 173.58055555555555, L
62781, 174.39166666666668, L
63073, 175.20277777777778, L
63388, 176.07777777777778, L
63707, 176.9638888888889, L
64022, 177.8388888888889, L
64321, 178.66944444444445, L
64619, 179.49722222222223, L
64919, 180.33055555555555, L
65217, 181.15833333333333, L
65534, 182.0388888888889, L
65844, 182.9, L
66153, 183.75833333333333, L
66252, 184.03333333333333, ~
66452, 184.5888888888889, L
66753, 185.425, L
67046, 186.23888888888888, L
67329, 187.025, L
67620, 187.83333333333334, L
67883, 188.5638888888889, ~
67937, 188.7138888888889, L
68238, 189.55, L
68525, 190.34722222222223, L
68811, 191.14166666666668, L
69093, 191.925, L
69371, 192.69722222222222, L
69666, 193.51666666666668, L
69978, 194.38333333333333, L
70284, 195.23333333333332, L
70578, 196.05, L
70880, 196.88888888888889, L
71180, 197.72222222222223, L
71466, 198.51666666666668, L
71754, 199.31666666666666, L
72064, 200.17777777777778, L
72374, 201.0388888888889, L
72676, 201.87777777777777, L
72982, 202.7277777777778, L
73282, 203.5611111111111, L
73578, 204.38333333333333, L
73864, 205.17777777777778, L
74180, 206.05555555555554, L
74489, 206.9138888888889, L
74793, 207.75833333333333, L
75082, 208.5611111111111, L
75382, 209.39444444444445, L
75671, 210.19722222222222, L
75957, 210.99166666666667, L
76270, 211.86111111111111, L
76585, 212.73611111111111, L
76891, 213.5861111111111, L
77192, 214.42222222222222, L
77490, 215.25, L
77777, 216.04722222222222, L
78060, 216.83333333333334, L
78368, 217.6888888888889, L
78679, 218.55277777777778, L
78990, 219.41666666666666, L
79293, 220.25833333333333, L
79599, 221.10833333333332, L
79895, 221.93055555555554, L
80197, 222.76944444444445, L
80514, 223.65, L
80830, 224.52777777777777, L
81143, 225.3972222222222, L
81448, 226.24444444444444, L
81757, 227.1027777777778, L
82060, 227.94444444444446, L
82363, 228.7861111111111, L
82670, 229.63888888888889, L
82992, 230.53333333333333, L
83318, 231.4388888888889, L
83635, 232.31944444444446, L
83951, 233.19722222222222, L
84258, 234.05, L
84561, 234.89166666666668, L
84887, 235.79722222222222, L
85220, 236.72222222222223, L
85540, 237.61111111111111, L
85847, 238.4638888888889, L
86158, 239.32777777777778, L
86467, 240.1861111111111, L
86769, 241.025, L
87091, 241.91944444444445, L
87413, 242.8138888888889, L
87738, 243.71666666666667, L
88041, 244.55833333333334, L
88352, 245.42222222222222, L
88665, 246.29166666666666, L
88963, 247.11944444444444, L
89269, 247.96944444444443, L
89593, 248.86944444444444, L
89910, 249.75, L
90212, 250.5888888888889, L
90528, 251.46666666666667, L
90826, 252.29444444444445, L
91113, 253.09166666666667, L
91433, 253.98055555555555, L
91750, 254.86111111111111, L
92063, 255.73055555555555, L
92363, 256.56388888888887, L
92679, 257.44166666666666, L
92978, 258.27222222222224, L
93270, 259.0833333333333, L
93589, 259.96944444444443, L
93908, 260.85555555555555, L
94220, 261.72222222222223, L
94527, 262.575, L
94830, 263.4166666666667, L
95123, 264.23055555555555, L
95413, 265.0361111111111, L
95732, 265.9222222222222, L
96051, 266.80833333333334, L
96362, 267.6722222222222, L
96668, 268.52222222222224, L
96964, 269.34444444444443, L
97266, 270.18333333333334, L
97564, 271.0111111111111, L
97883, 271.89722222222224, L
98201, 272.78055555555557, L
98522, 273.6722222222222, L
98829, 274.525, L
99136, 275.3777777777778, L
99432, 276.2, L
99721, 277.0027777777778, L
100034, 277.8722222222222, L
100364, 278.7888888888889, L
100684, 279.6777777777778, L
100988, 280.52222222222224, L
101291, 281.3638888888889, L
101600, 282.22222222222223, L
101901, 283.05833333333334, L
102222, 283.95, L
102543, 284.84166666666664, L
102864, 285.73333333333335, L
103164, 286.56666666666666, L
103475, 287.43055555555554, L
103774, 288.2611111111111, L
104067, 289.075, L
104387, 289.9638888888889, L
104711, 290.8638888888889, L
105019, 291.71944444444443, L
105317, 292.5472222222222, L
105620, 293.3888888888889, L
105920, 294.22222222222223, L
106215, 295.0416666666667, L
106537, 295.93611111111113, L
106856, 296.8222222222222, L
107172, 297.7, L
107483, 298.56388888888887, L
107803, 299.4527777777778, L
108110, 300.30555555555554, L
108407, 301.13055555555553, L
108725, 302.0138888888889, L
109046, 302.90555555555557, L
109363, 303.7861111111111, L
109670, 304.6388888888889, L
109972, 305.47777777777776, L
110267, 306.2972222222222, L
110562, 307.1166666666667, L
110885, 308.0138888888889, L
111207, 308.90833333333336, L
111521, 309.78055555555557, L
111826, 310.6277777777778, L
112131, 311.475, L
112436, 312.3222222222222, L
112747, 313.18611111111113, L
113064, 314.06666666666666, L
113379, 314.94166666666666, L
113705, 315.84722222222223, L
114021, 316.725, L
114333, 317.59166666666664, L
114630, 318.4166666666667, L
114932, 319.25555555555553, L
115260, 320.1666666666667, L
115585, 321.06944444444446, L
115891, 321.9194444444444, L
116204, 322.7888888888889, L
116509, 323.6361111111111, L
116816, 324.4888888888889, L
117108, 325.3, L
117427, 326.18611111111113, L
117745, 327.06944444444446, L
118051, 327.9194444444444, L
118364, 328.7888888888889, L
118671, 329.64166666666665, L
118970, 330.47222222222223, L
119270, 331.30555555555554, L
119588, 332.18888888888887, L
119912, 333.0888888888889, L
120220, 333.94444444444446, L
120531, 334.80833333333334, L
120835, 335.65277777777777, L
121130, 336.47222222222223, L
121423, 337.2861111111111, L
121748, 338.18888888888887, L
122066, 339.0722222222222, L
122369, 339.9138888888889, L
122679, 340.775, L
122988, 341.6333333333333, L
123294, 342.48333333333335, L
123586, 343.2944444444444, L
123899, 344.1638888888889, L
124220, 345.05555555555554, L
124524, 345.9, L
124836, 346.76666666666665, L
125139, 347.60833333333335, L
125430, 348.4166666666667, L
125720, 349.22222222222223, L
126047, 350.13055555555553, L
126371, 351.03055555555557, L
126681, 351.89166666666665, L
126982, 352.72777777777776, L
127291, 353.5861111111111, L
127594, 354.4277777777778, L
127895, 355.2638888888889, L
128219, 356.1638888888889, L
128539, 357.0527777777778, L
128847, 357.90833333333336, L
129169, 358.8027777777778, L
129475, 359.65277777777777, L
129773, 360.48055555555555, L
130070, 361.30555555555554, L
130397, 362.2138888888889, L
130719, 363.10833333333335, L
131033, 363.98055555555555, L
131347, 364.85277777777776, L
131654, 365.7055555555556, L
131962, 366.56111111111113, L
132276, 367.43333333333334, L
132602, 368.3388888888889, L
132922, 369.22777777777776, L
133231, 370.0861111111111, L
133541, 370.9472222222222, L
133846, 371.7944444444444, L
134153, 372.64722222222224, L
134456, 373.4888888888889, L
134775, 374.375, L
135100, 375.27777777777777, L
135408, 376.1333333333333, L
135717, 376.9916666666667, L
136013, 377.81388888888887, L
136314, 378.65, L
136621, 379.5027777777778, L
136950, 380.4166666666667, L
137281, 381.3361111111111, L
137591, 382.1972222222222, L
137904, 383.06666666666666, L
138213, 383.925, L
138510, 384.75, L
138813, 385.59166666666664, L
139130, 386.47222222222223, L
139454, 387.3722222222222, L
139757, 388.2138888888889, L
140068, 389.0777777777778, L
140366, 389.90555555555557, L
140662, 390.72777777777776, L
140968, 391.5777777777778, L
141292, 392.47777777777776, L
141603, 393.34166666666664, L
141904, 394.1777777777778, L
142212, 395.03333333333336, L
142514, 395.8722222222222, L
142818, 396.71666666666664, L
143123, 397.56388888888887, L
143448, 398.46666666666664, L
143769, 399.35833333333335, L
144080, 400.22222222222223, L
144399, 401.10833333333335, L
144704, 401.9555555555556, L
145006, 402.7944444444444, L
145321, 403.6694444444444, L
145646, 404.5722222222222, L
145978, 405.49444444444447, L
146292, 406.3666666666667, L
146595, 407.2083333333333, L
146891, 408.03055555555557, L
147192, 408.8666666666667, L
147514, 409.7611111111111, L
147841, 410.6694444444444, L
148158, 411.55, L
148465, 412.40277777777777, L
148775, 413.2638888888889, L
149077, 414.10277777777776, L
149369, 414.9138888888889, L
149691, 415.80833333333334, L
150012, 416.7, L
150345, 417.625, L
150656, 418.4888888888889, L
150961, 419.3361111111111, L
151269, 420.19166666666666, L
151573, 421.0361111111111, L
151898, 421.93888888888887, L
152229, 422.85833333333335, L
152549, 423.7472222222222, L
152857, 424.60277777777776, L
153170, 425.47222222222223, L
153481, 426.3361111111111, L
153785, 427.18055555555554, L
154102, 428.06111111111113, L
154425, 428.9583333333333, L
154746, 429.85, L
155062, 430.72777777777776, L
155368, 431.5777777777778, L
155671, 432.4194444444444, L
155971, 433.2527777777778, L
156295, 434.15277777777777, L
156618, 435.05, L
156931, 435.9194444444444, L
157237, 436.76944444444445, L
157539, 437.60833333333335, L
157845, 438.4583333333333, L
158153, 439.31388888888887, L
158483, 440.23055555555555, L
158807, 441.13055555555553, L
159119, 441.9972222222222, L
159446, 442.90555555555557, L
159760, 443.77777777777777, L
160063, 444.61944444444447, L
160370, 445.47222222222223, L
160700, 446.3888888888889, L
161023, 447.2861111111111, L
161334, 448.15, L
161646, 449.01666666666665, L
161941, 449.8361111111111, L
162239, 450.6638888888889, L
162543, 451.5083333333333, L
162864, 452.4, L
163188, 453.3, L
163495, 454.15277777777777, L
163811, 455.03055555555557, L
164117, 455.88055555555553, L
164423, 456.73055555555555, L
164731, 457.5861111111111, L
165058, 458.49444444444447, L
165376, 459.3777777777778, L
165684, 460.23333333333335, L
165994, 461.09444444444443, L
166298, 461.93888888888887, L
166602, 462.78333333333336, L
166915, 463.65277777777777, L
167238, 464.55, L
167568, 465.46666666666664, L
167877, 466.325, L
168186, 467.18333333333334, L
168488, 468.02222222222224, L
168797, 468.88055555555553, L
169113, 469.7583333333333, L
169424, 470.6222222222222, L
169744, 471.5111111111111, L
170054, 472.3722222222222, L
170364, 473.23333333333335, L
170670, 474.0833333333333, L
170966, 474.90555555555557, L
171280, 475.77777777777777, L
171598, 476.6611111111111, L
171925, 477.56944444444446, L
172227, 478.40833333333336, L
172528, 479.24444444444447, L
172825, 480.06944444444446, L
173117, 480.88055555555553, L
173431, 481.7527777777778, L
173756, 482.65555555555557, L
174073, 483.5361111111111, L
174374, 484.3722222222222, L
174684, 485.23333333333335, L
174989, 486.0805555555556, L
175287, 486.90833333333336, L
175594, 487.7611111111111, L
175914, 488.65, L
176235, 489.5416666666667, L
176543, 490.39722222222224, L
176859, 491.275, L
177156, 492.1, L
177440, 492.8888888888889, L
177760, 493.77777777777777, L
178083, 494.675, L
178393, 495.5361111111111, L
178687, 496.35277777777776, L
178990, 497.19444444444446, L
179285, 498.0138888888889, L
179582, 498.8388888888889, L
179887, 499.68611111111113, L
180200, 500.55555555555554, L
180517, 501.43611111111113, L
180828, 502.3, L
181140, 503.1666666666667, L
181438, 503.99444444444447, L
181733, 504.81388888888887, L
182045, 505.68055555555554, L
182369, 506.5805555555556, L
182696, 507.4888888888889, L
183008, 508.35555555555555, L
183312, 509.2, L
183614, 510.0388888888889, L
183924, 510.9, L
184242, 511.78333333333336, L
184561, 512.6694444444445, L
184882, 513.5611111111111, L
185188, 514.4111111111112, L
185497, 515.2694444444444, L
185803, 516.1194444444444, L
186095, 516.9305555555555, L
186351, 517.6416666666667, V
186720, 518.6666666666666, L
187044, 519.5666666666667, L
187342, 520.3944444444444, L
187634, 521.2055555555555, L
187920, 522.0, L
188208, 522.8, L
188504, 523.6222222222223, L
188820, 524.5, L
189126, 525.35, L
189419, 526.1638888888889, L
189725, 527.0138888888889, L
190024, 527.8444444444444, L
190324, 528.6777777777778, L
190612, 529.4777777777778, L
190947, 530.4083333333333, L
191269, 531.3027777777778, L
191578, 532.1611111111112, L
191892, 533.0333333333333, L
192207, 533.9083333333333, L
192512, 534.7555555555556, L
192823, 535.6194444444444, L
193157, 536.5472222222222, L
193486, 537.4611111111111, L
193790, 538.3055555555555, L
194098, 539.1611111111112, L
194398, 539.9944444444444, L
194708, 540.8555555555556, L
195027, 541.7416666666667, L
195346, 542.6277777777777, L
195680, 543.5555555555555, L
195997, 544.4361111111111, L
196312, 545.3111111111111, L
196619, 546.1638888888889, L
196915, 546.9861111111111, L
197238, 547.8833333333333, L
197563, 548.7861111111112, L
197874, 549.65, L
198175, 550.4861111111111, L
198486, 551.35, L
198780, 552.1666666666666, L
199071, 552.975, L
199383, 553.8416666666667, L
199693, 554.7027777777778, L
199999, 555.5527777777778, L
200296, 556.3777777777777, L
200598, 557.2166666666667, L
200891, 558.0305555555556, L
201182, 558.8388888888888, L
201486, 559.6833333333333, L
201795, 560.5416666666666, L
202105, 561.4027777777778, L
202401, 562.225, L
202700, 563.0555555555555, L
202987, 563.8527777777778, L
203282, 564.6722222222222, L
203574, 565.4833333333333, L
203889, 566.3583333333333, L
204201, 567.225, L
204496, 568.0444444444445, L
204799, 568.8861111111111, L
205098, 569.7166666666667, L
205394, 570.5388888888889, L
205681, 571.3361111111111, L
205987, 572.1861111111111, L
206300, 573.0555555555555, L
206602, 573.8944444444444, L
206909, 574.7472222222223, L
207216, 575.6, L
207513, 576.425, L
207802, 577.2277777777778, L
208114, 578.0944444444444, L
208428, 578.9666666666667, L
208735, 579.8194444444445, L
209032, 580.6444444444444, L
209330, 581.4722222222222, L
209627, 582.2972222222222, L
209922, 583.1166666666667, L
210235, 583.9861111111111, L
210543, 584.8416666666667, L
210854, 585.7055555555555, L
211152, 586.5333333333333, L
211454, 587.3722222222223, L
211748, 588.1888888888889, L
212034, 588.9833333333333, L
212347, 589.8527777777778, L
212665, 590.7361111111111, L
212977, 591.6027777777778, L
213274, 592.4277777777778, L
213575, 593.2638888888889, L
213867, 594.075, L
214153, 594.8694444444444, L
214464, 595.7333333333333, L
214780, 596.6111111111111, L
215094, 597.4833333333333, L
215389, 598.3027777777778, L
215690, 599.1388888888889, L
215989, 599.9694444444444, L
216288, 600.8, L
216581, 601.6138888888889, L
216890, 602.4722222222222, L
217201, 603.3361111111111, L
217505, 604.1805555555555, L
217805, 605.0138888888889, L
218095, 605.8194444444445, L
218396, 606.6555555555556, L
218674, 607.4277777777778, L
218984, 608.2888888888889, L
219294, 609.15, L
219589, 609.9694444444444, L
219891, 610.8083333333333, L
220182, 611.6166666666667, L
220467, 612.4083333333333, L
220750, 613.1944444444445, L
221056, 614.0444444444445, L
221365, 614.9027777777778, L
221667, 615.7416666666667, L
221958, 616.55, L
222260, 617.3888888888889, L
222555, 618.2083333333334, L
222843, 619.0083333333333, L
223149, 619.8583333333333, L
223466, 620.7388888888889, L
223775, 621.5972222222222, L
224068, 622.4111111111112, L
224362, 623.2277777777778, L
224660, 624.0555555555555, L
224948, 624.8555555555556, L
225255, 625.7083333333334, L
225574, 626.5944444444444, L
225890, 627.4722222222222, L
226190, 628.3055555555555, L
226501, 629.1694444444445, L
226804, 630.0111111111111, L
227106, 630.85, L
227421, 631.725, L
227742, 632.6166666666667, L
228062, 633.5055555555556, L
228368, 634.3555555555556, L
228686, 635.2388888888889, L
228988, 636.0777777777778, L
229297, 636.9361111111111, L
229612, 637.8111111111111, L
229944, 638.7333333333333, L
230258, 639.6055555555556, L
230562, 640.45, L
230874, 641.3166666666667, L
231182, 642.1722222222222, L
231493, 643.0361111111112, L
231800, 643.8888888888889, L
232119, 644.775, L
232443, 645.675, L
232742, 646.5055555555556, L
233051, 647.3638888888889, L
233345, 648.1805555555555, L
233640, 649.0, L
233962, 649.8944444444444, L
234292, 650.8111111111111, L
234616, 651.7111111111111, L
234937, 652.6027777777778, L
235157, 653.2138888888888, L
235510, 654.1944444444445, L
235816, 655.0444444444445, L
236144, 655.9555555555555, L
236467, 656.8527777777778, L
236797, 657.7694444444444, L
237090, 658.5833333333334, L
237402, 659.45, L
237703, 660.2861111111112, L
238001, 661.1138888888889, L
238325, 662.0138888888889, L
238652, 662.9222222222222, L
238975, 663.8194444444445, L
239287, 664.6861111111111, L
239597, 665.5472222222222, L
239895, 666.375, L
240197, 667.2138888888888, L
240530, 668.1388888888889, L
240851, 669.0305555555556, L
241167, 669.9083333333333, L
241481, 670.7805555555556, L
241794, 671.65, L
242092, 672.4777777777778, L
242386, 673.2944444444445, L
242703, 674.175, L
243017, 675.0472222222222, L
243337, 675.9361111111111, L
243653, 676.8138888888889, L
243954, 677.65, L
244257, 678.4916666666667, L
244560, 679.3333333333334, L
244890, 680.25, L
245210, 681.1388888888889, L
245517, 681.9916666666667, L
245836, 682.8777777777777, L
246143, 683.7305555555556, L
246447, 684.575, L
246752, 685.4222222222222, L
247075, 686.3194444444445, L
247391, 687.1972222222222, L
247698, 688.05, L
248023, 688.9527777777778, L
248330, 689.8055555555555, L
248625, 690.625, L
248926, 691.4611111111111, L
249250, 692.3611111111111, L
249580, 693.2777777777778, L
249896, 694.1555555555556, L
250209, 695.025, L
250522, 695.8944444444444, L
250809, 696.6916666666667, L
251113, 697.5361111111112, L
251439, 698.4416666666667, L
251752, 699.3111111111111, L
252061, 700.1694444444445, L
252372, 701.0333333333333, L
252674, 701.8722222222223, L
252975, 702.7083333333334, L
253273, 703.5361111111112, L
253582, 704.3944444444444, L
253901, 705.2805555555556, L
254214, 706.15, L
254531, 707.0305555555556, L
254831, 707.8638888888889, L
255137, 708.7138888888888, L
255443, 709.5638888888889, L
255778, 710.4944444444444, L
256090, 711.3611111111111, L
256393, 712.2027777777778, L
256705, 713.0694444444445, L
257013, 713.925, L
257314, 714.7611111111111, L
257619, 715.6083333333333, L
257939, 716.4972222222223, L
258260, 717.3888888888889, L
258584, 718.2888888888889, L
258896, 719.1555555555556, L
259194, 719.9833333333333, L
259487, 720.7972222222222, L
259769, 721.5805555555555, L
260094, 722.4833333333333, L
260411, 723.3638888888889, L
260713, 724.2027777777778, L
261020, 725.0555555555555, L
261324, 725.9, L
261627, 726.7416666666667, L
261942, 727.6166666666667, L
262265, 728.5138888888889, L
262587, 729.4083333333333, L
262909, 730.3027777777778, L
263228, 731.1888888888889, L
263537, 732.0472222222222, L
263842, 732.8944444444444, L
264163, 733.7861111111112, L
264499, 734.7194444444444, L
264819, 735.6083333333333, L
265130, 736.4722222222222, L
265438, 737.3277777777778, L
265737, 738.1583333333333, L
266047, 739.0194444444444, L
266345, 739.8472222222222, L
266661, 740.725, L
266975, 741.5972222222222, L
267278, 742.4388888888889, L
267582, 743.2833333333333, L
267881, 744.1138888888889, L
268175, 744.9305555555555, L
268481, 745.7805555555556, L
268800, 746.6666666666666, L
269128, 747.5777777777778, L
269439, 748.4416666666667, L
269750, 749.3055555555555, L
270052, 750.1444444444444, L
270353, 750.9805555555556, L
270682, 751.8944444444444, L
271016, 752.8222222222222, L
271341, 753.725, L
271647, 754.575, L
271957, 755.4361111111111, L
272257, 756.2694444444444, L
272550, 757.0833333333334, L
272865, 757.9583333333334, L
273176, 758.8222222222222, L
273486, 759.6833333333333, L
273795, 760.5416666666666, L
274108, 761.4111111111112, L
274406, 762.2388888888889, L
274700, 763.0555555555555, L
275027, 763.9638888888888, L
275354, 764.8722222222223, L
275689, 765.8027777777778, L
275969, 766.5805555555555, L
276272, 767.4222222222222, L
276572, 768.2555555555556, L
276863, 769.0638888888889, L
277178, 769.9388888888889, L
277501, 770.8361111111111, L
277813, 771.7027777777778, L
278123, 772.5638888888889, L
278423, 773.3972222222222, L
278721, 774.225, L
279013, 775.0361111111112, L
279331, 775.9194444444445, L
279648, 776.8, L
279966, 777.6833333333333, L
280269, 778.525, L
280574, 779.3722222222223, L
280861, 780.1694444444445, L
281154, 780.9833333333333, L
281478, 781.8833333333333, L
281800, 782.7777777777778, L
282114, 783.65, L
282419, 784.4972222222223, L
282731, 785.3638888888889, L
283044, 786.2333333333333, L
283343, 787.0638888888889, L
283656, 787.9333333333333, L
283977, 788.825, L
284307, 789.7416666666667, L
284617, 790.6027777777778, L
284915, 791.4305555555555, L
285215, 792.2638888888889, L
285514, 793.0944444444444, L
285837, 793.9916666666667, L
286161, 794.8916666666667, L
286491, 795.8083333333333, L
286789, 796.6361111111111, L
287083, 797.4527777777778, L
287389, 798.3027777777778, L
287682, 799.1166666666667, L
287992, 799.9777777777778, L
288301, 800.8361111111111, L
288621, 801.725, L
288927, 802.575, L
289233, 803.425, L
289533, 804.2583333333333, L
289838, 805.1055555555556, L
290164, 806.0111111111111, L
290502, 806.95, L
290830, 807.8611111111111, L
291142, 808.7277777777778, L
291460, 809.6111111111111, L
291770, 810.4722222222222, L
292082, 811.3388888888888, L
292417, 812.2694444444444, L
292745, 813.1805555555555, L
293057, 814.0472222222222, L
293381, 814.9472222222222, L
293694, 815.8166666666667, L
294006, 816.6833333333333, L
294308, 817.5222222222222, L
294636, 818.4333333333333, L
294964, 819.3444444444444, L
295273, 820.2027777777778, L
295586, 821.0722222222222, L
295893, 821.925, L
296193, 822.7583333333333, L
296506, 823.6277777777777, L
296844, 824.5666666666667, L
297154, 825.4277777777778, L
297458, 826.2722222222222, L
297767, 827.1305555555556, L
298059, 827.9416666666667, L
298359, 828.775, L
298658, 829.6055555555556, L
298975, 830.4861111111111, L
299280, 831.3333333333334, L
299585, 832.1805555555555, L
299896, 833.0444444444445, L
300196, 833.8777777777777, L
300505, 834.7361111111111, L
300789, 835.525, L
301106, 836.4055555555556, L
301426, 837.2944444444445, L
301730, 838.1388888888889, L
302037, 838.9916666666667, L
302336, 839.8222222222222, L
302638, 840.6611111111112, L
302931, 841.475, L
303258, 842.3833333333333, L
303557, 843.2138888888888, L
303860, 844.0555555555555, L
304164, 844.9, L
304460, 845.7222222222222, L
304754, 846.5388888888889, L
305043, 847.3416666666667, L
305353, 848.2027777777778, L
305672, 849.0888888888888, L
305983, 849.9527777777778, L
306285, 850.7916666666666, L
306584, 851.6222222222223, L
306884, 852.4555555555555, L
307177, 853.2694444444444, L
307498, 854.1611111111112, L
307808, 855.0222222222222, L
308122, 855.8944444444444, L
308427, 856.7416666666667, L
308736, 857.6, L
309035, 858.4305555555555, L
309331, 859.2527777777777, L
309646, 860.1277777777777, L
309965, 861.0138888888889, L
310289, 861.9138888888889, L
310604, 862.7888888888889, L
310906, 863.6277777777777, L
311201, 864.4472222222222, L
311498, 865.2722222222222, L
311819, 866.1638888888889, L
312136, 867.0444444444445, L
312441, 867.8916666666667, L
312751, 868.7527777777777, L
313040, 869.5555555555555, L
313336, 870.3777777777777, L
313630, 871.1944444444445, L
313939, 872.0527777777778, L
314247, 872.9083333333333, L
314553, 873.7583333333333, L
314853, 874.5916666666667, L
315156, 875.4333333333333, L
315448, 876.2444444444444, L
315736, 877.0444444444445, L
316049, 877.9138888888889, L
316369, 878.8027777777778, L
316690, 879.6944444444445, L
316987, 880.5194444444444, L
317288, 881.3555555555556, L
317585, 882.1805555555555, L
317892, 883.0333333333333, L
318186, 883.85, L
318491, 884.6972222222222, L
318801, 885.5583333333333, L
319094, 886.3722222222223, L
319409, 887.2472222222223, L
319681, 888.0027777777777, L
319966, 888.7944444444445, L
320254, 889.5944444444444, L
320567, 890.4638888888888, L
320884, 891.3444444444444, L
321184, 892.1777777777778, L
321479, 892.9972222222223, L
321777, 893.825, L
322072, 894.6444444444444, L
322363, 895.4527777777778, L
322680, 896.3333333333334, L
322990, 897.1944444444445, L
323287, 898.0194444444444, L
323584, 898.8444444444444, L
323886, 899.6833333333333, L
324167, 900.4638888888888, L
324445, 901.2361111111111, L
324751, 902.0861111111111, L
325059, 902.9416666666667, L
325363, 903.7861111111112, L
325657, 904.6027777777778, L
325955, 905.4305555555555, L
326239, 906.2194444444444, L
326527, 907.0194444444444, L
326842, 907.8944444444444, L
327157, 908.7694444444444, L
327471, 909.6416666666667, L
327770, 910.4722222222222, L
328065, 911.2916666666666, L
328358, 912.1055555555556, L
328657, 912.9361111111111, L
328965, 913.7916666666666, L
329277, 914.6583333333333, L
329589, 915.525, L
329904, 916.4, L
330212, 917.2555555555556, L
330507, 918.075, L
330800, 918.8888888888889, L
331105, 919.7361111111111, L
331433, 920.6472222222222, L
331743, 921.5083333333333, L
332028, 922.3, L
332329, 923.1361111111111, L
332618, 923.9388888888889, L
332916, 924.7666666666667, L
333210, 925.5833333333334, L
333527, 926.4638888888888, L
333840, 927.3333333333334, L
334148, 928.1888888888889, L
334457, 929.0472222222222, L
334767, 929.9083333333333, L
335076, 930.7666666666667, L
335377, 931.6027777777778, L
335698, 932.4944444444444, L
336025, 933.4027777777778, L
336339, 934.275, L
336655, 935.1527777777778, L
336962, 936.0055555555556, L
337273, 936.8694444444444, L
337581, 937.725, L
337910, 938.6388888888889, L
338236, 939.5444444444445, L
338545, 940.4027777777778, L
338853, 941.2583333333333, L
339161, 942.1138888888889, L
339462, 942.95, L
339767, 943.7972222222222, L
340089, 944.6916666666667, L
340408, 945.5777777777778, L
340714, 946.4277777777778, L
341023, 947.2861111111112, L
341331, 948.1416666666667, L
341613, 948.925, L
341911, 949.7527777777777, L
342238, 950.6611111111112, L
342555, 951.5416666666666, L
342856, 952.3777777777777, L
343162, 953.2277777777778, L
343465, 954.0694444444445, L
343756, 954.8777777777777, L
344065, 955.7361111111111, L
344385, 956.625, L
344705, 957.5138888888889, L
345012, 958.3666666666667, L
345327, 959.2416666666667, L
345640, 960.1111111111111, L
345926, 960.9055555555556, L
346228, 961.7444444444444, L
346542, 962.6166666666667, L
346850, 963.4722222222222, L
347155, 964.3194444444445, L
347456, 965.1555555555556, L
347747, 965.9638888888888, L
348042, 966.7833333333333, L
348343, 967.6194444444444, L
348655, 968.4861111111111, L
348955, 969.3194444444445, L
349252, 970.1444444444444, L
349554, 970.9833333333333, L
349847, 971.7972222222222, L
350141, 972.6138888888889, L
350424, 973.4, L
350731, 974.2527777777777, L
351040, 975.1111111111111, L
351354, 975.9833333333333, L
351652, 976.8111111111111, L
351949, 977.6361111111111, L
352244, 978.4555555555555, L
352531, 979.2527777777777, L
352853, 980.1472222222222, L
353177, 981.0472222222222, L
353491, 981.9194444444445, L
353792, 982.7555555555556, L
354098, 983.6055555555556, L
354402, 984.45, L
354699, 985.275, L
355016, 986.1555555555556, L
355337, 987.0472222222222, L
355648, 987.9111111111112, L
355955, 988.7638888888889, L
356263, 989.6194444444444, L
356564, 990.4555555555555, L
356858, 991.2722222222222, L
357182, 992.1722222222222, L
357507, 993.075, L
357828, 993.9666666666667, L
358134, 994.8166666666667, L
358442, 995.6722222222222, L
358739, 996.4972222222223, L
359036, 997.3222222222222, L
359350, 998.1944444444445, L
359662, 999.0611111111111, L
359970, 999.9166666666666, L
360272, 1000.7555555555556, L
360573, 1001.5916666666667, L
360863, 1002.3972222222222, L
361145, 1003.1805555555555, L
361456, 1004.0444444444445, L
361767, 1004.9083333333333, L
362082, 1005.7833333333333, L
362382, 1006.6166666666667, L
362687, 1007.4638888888888, L
362986, 1008.2944444444445, L
363284, 1009.1222222222223, L
363593, 1009.9805555555556, L
363910, 1010.8611111111111, L
364226, 1011.7388888888889, L
364528, 1012.5777777777778, L
364834, 1013.4277777777778, L
365133, 1014.2583333333333, L
365429, 1015.0805555555555, L
365735, 1015.9305555555555, L
366056, 1016.8222222222222, L
366384, 1017.7333333333333, L
366688, 1018.5777777777778, L
366995, 1019.4305555555555, L
367296, 1020.2666666666667, L
367596, 1021.1, L
367919, 1021.9972222222223, L
368249, 1022.9138888888889, L
368574, 1023.8166666666667, L
368880, 1024.6666666666667, L
369194, 1025.5388888888888, L
369507, 1026.4083333333333, L
369808, 1027.2444444444445, L
370128, 1028.1333333333334, L
370455, 1029.0416666666667, L
370772, 1029.9222222222222, L
371085, 1030.7916666666667, L
371394, 1031.65, L
371694, 1032.4833333333333, L
371990, 1033.3055555555557, L
372317, 1034.213888888889, L
372639, 1035.1083333333333, L
372958, 1035.9944444444445, L
373268, 1036.8555555555556, L
373579, 1037.7194444444444, L
373883, 1038.5638888888889, L
374181, 1039.3916666666667, L
374506, 1040.2944444444445, L
374832, 1041.2, L
375146, 1042.0722222222223, L
375464, 1042.9555555555555, L
375776, 1043.8222222222223, L
376080, 1044.6666666666667, L
376371, 1045.475, L
376693, 1046.3694444444445, L
377011, 1047.2527777777777, L
377323, 1048.1194444444445, L
377636, 1048.9888888888888, L
377938, 1049.8277777777778, L
378236, 1050.6555555555556, L
378540, 1051.5, L
378864, 1052.4, L
379185, 1053.2916666666667, L
379493, 1054.1472222222221, L
379813, 1055.036111111111, L
380119, 1055.8861111111112, L
380421, 1056.725, L
380724, 1057.5666666666666, L
381048, 1058.4666666666667, L
381371, 1059.3638888888888, L
381692, 1060.2555555555555, L
382005, 1061.125, L
382309, 1061.9694444444444, L
382615, 1062.8194444444443, L
382922, 1063.6722222222222, L
383248, 1064.5777777777778, L
383574, 1065.4833333333333, L
383881, 1066.3361111111112, L
384193, 1067.2027777777778, L
384501, 1068.0583333333334, L
384811, 1068.9194444444445, L
385124, 1069.7888888888888, L
385449, 1070.6916666666666, L
385780, 1071.611111111111, L
386085, 1072.4583333333333, L
386404, 1073.3444444444444, L
386718, 1074.2166666666667, L
387027, 1075.075, L
387345, 1075.9583333333333, L
387669, 1076.8583333333333, L
387994, 1077.7611111111112, L
388308, 1078.6333333333334, L
388611, 1079.475, L
388915, 1080.3194444444443, L
389215, 1081.1527777777778, L
389538, 1082.05, L
389859, 1082.9416666666666, L
390176, 1083.8222222222223, L
390479, 1084.6638888888888, L
390789, 1085.525, L
391091, 1086.3638888888888, L
391383, 1087.175, L
391701, 1088.0583333333334, L
392024, 1088.9555555555555, L
392348, 1089.8555555555556, L
392661, 1090.725, L
392970, 1091.5833333333333, L
393270, 1092.4166666666667, L
393574, 1093.2611111111112, L
393904, 1094.1777777777777, L
394230, 1095.0833333333333, L
394550, 1095.9722222222222, L
394868, 1096.8555555555556, L
395183, 1097.7305555555556, L
395498, 1098.6055555555556, L
395808, 1099.4666666666667, L
396132, 1100.3666666666666, L
396454, 1101.2611111111112, L
396783, 1102.175, L
397107, 1103.075, L
397417, 1103.9361111111111, L
397727, 1104.7972222222222, L
398035, 1105.6527777777778, L
398365, 1106.5694444444443, L
398686, 1107.4611111111112, L
398994, 1108.3166666666666, L
399303, 1109.175, L
399604, 1110.0111111111112, L
399912, 1110.8666666666666, L
400224, 1111.7333333333333, L
400551, 1112.6416666666667, L
400876, 1113.5444444444445, L
401182, 1114.3944444444444, L
401501, 1115.2805555555556, L
401818, 1116.161111111111, L
402128, 1117.0222222222221, L
402445, 1117.9027777777778, L
402785, 1118.8472222222222, L
403118, 1119.7722222222221, L
403432, 1120.6444444444444, L
403747, 1121.5194444444444, L
404052, 1122.3666666666666, L
404358, 1123.2166666666667, L
404691, 1124.1416666666667, L
405018, 1125.05, L
405342, 1125.95, L
405656, 1126.8222222222223, L
405976, 1127.7111111111112, L
406279, 1128.5527777777777, L
406574, 1129.3722222222223, L
406899, 1130.275, L
407221, 1131.1694444444445, L
407542, 1132.0611111111111, L
407855, 1132.9305555555557, L
408166, 1133.7944444444445, L
408466, 1134.6277777777777, L
408777, 1135.4916666666666, L
409106, 1136.4055555555556, L
409434, 1137.3166666666666, L
409748, 1138.1888888888889, L
410071, 1139.0861111111112, L
410382, 1139.95, L
410694, 1140.8166666666666, L
411003, 1141.675, L
411331, 1142.5861111111112, L
411651, 1143.475, L
411969, 1144.3583333333333, L
412286, 1145.2388888888888, L
412590, 1146.0833333333333, L
412888, 1146.911111111111, L
413198, 1147.7722222222221, L
413528, 1148.6888888888889, L
413858, 1149.6055555555556, L
414167, 1150.463888888889, L
414483, 1151.3416666666667, L
414793, 1152.2027777777778, L
415101, 1153.0583333333334, L
415409, 1153.9138888888888, L
415724, 1154.7888888888888, L
416047, 1155.6861111111111, L
416350, 1156.5277777777778, L
416666, 1157.4055555555556, L
416975, 1158.263888888889, L
417274, 1159.0944444444444, L
417584, 1159.9555555555555, L
417908, 1160.8555555555556, L
418234, 1161.7611111111112, L
418541, 1162.6138888888888, L
418846, 1163.4611111111112, L
419152, 1164.3111111111111, L
419447, 1165.1305555555555, L
419772, 1166.0333333333333, L
420108, 1166.9666666666667, L
420440, 1167.888888888889, L
420755, 1168.763888888889, L
421078, 1169.661111111111, L
421403, 1170.5638888888889, L
421718, 1171.4388888888889, L
422052, 1172.3666666666666, L
422388, 1173.3, L
422704, 1174.1777777777777, L
423027, 1175.075, L
423336, 1175.9333333333334, L
423639, 1176.775, L
423944, 1177.6222222222223, L
424274, 1178.5388888888888, L
424599, 1179.4416666666666, L
424908, 1180.3, L
425224, 1181.1777777777777, L
425534, 1182.0388888888888, L
425841, 1182.8916666666667, L
426153, 1183.7583333333334, L
426482, 1184.6722222222222, L
426816, 1185.6, L
427133, 1186.4805555555556, L
427458, 1187.3833333333334, L
427770, 1188.25, L
428075, 1189.0972222222222, L
428407, 1190.0194444444444, L
428746, 1190.9611111111112, L
429082, 1191.8944444444444, L
429408, 1192.8, L
429730, 1193.6944444444443, L
429851, 1194.0305555555556, ~
430052, 1194.588888888889, L
430363, 1195.4527777777778, L
430695, 1196.375, L
431028, 1197.3, L
431352, 1198.2, L
431682, 1199.1166666666666, L
432002, 1200.0055555555555, L
432320, 1200.888888888889, L
432438, 1201.2166666666667, ~
432639, 1201.775, L
432971, 1202.6972222222223, L
433310, 1203.638888888889, L
433626, 1204.5166666666667, L
433943, 1205.3972222222221, L
434251, 1206.2527777777777, L
434558, 1207.1055555555556, L
434876, 1207.9888888888888, L
435207, 1208.9083333333333, L
435532, 1209.8111111111111, L
435840, 1210.6666666666667, L
436158, 1211.55, L
436466, 1212.4055555555556, L
436768, 1213.2444444444445, L
437091, 1214.1416666666667, L
437421, 1215.0583333333334, L
437748, 1215.9666666666667, L
438062, 1216.838888888889, L
438372, 1217.7, L
438676, 1218.5444444444445, L
438977, 1219.3805555555555, L
439305, 1220.2916666666667, L
439633, 1221.2027777777778, L
439948, 1222.0777777777778, L
440256, 1222.9333333333334, L
440571, 1223.8083333333334, L
440882, 1224.6722222222222, L
441196, 1225.5444444444445, L
441524, 1226.4555555555555, L
441850, 1227.361111111111, L
442168, 1228.2444444444445, L
442492, 1229.1444444444444, L
442802, 1230.0055555555555, L
443105, 1230.8472222222222, L
443409, 1231.6916666666666, L
443739, 1232.6083333333333, L
444071, 1233.5305555555556, L
444391, 1234.4194444444445, L
444714, 1235.3166666666666, L
445022, 1236.1722222222222, L
445337, 1237.0472222222222, L
445655, 1237.9305555555557, L
445977, 1238.825, L
446300, 1239.7222222222222, L
446607, 1240.575, L
446917, 1241.4361111111111, L
447217, 1242.2694444444444, L
447510, 1243.0833333333333, L
447818, 1243.9388888888889, L
448136, 1244.8222222222223, L
448465, 1245.736111111111, L
448770, 1246.5833333333333, L
449072, 1247.4222222222222, L
449372, 1248.2555555555555, L
449667, 1249.075, L
449970, 1249.9166666666667, L
450290, 1250.8055555555557, L
450603, 1251.675, L
450899, 1252.4972222222223, L
451204, 1253.3444444444444, L
451505, 1254.1805555555557, L
451802, 1255.0055555555555, L
452105, 1255.8472222222222, L
452425, 1256.736111111111, L
452743, 1257.6194444444445, L
453059, 1258.4972222222223, L
453379, 1259.3861111111112, L
453687, 1260.2416666666666, L
453984, 1261.0666666666666, L
454304, 1261.9555555555555, L
454637, 1262.8805555555555, L
454955, 1263.763888888889, L
455261, 1264.6138888888888, L
455574, 1265.4833333333333, L
455874, 1266.3166666666666, L
456175, 1267.1527777777778, L
456488, 1268.0222222222221, L
456807, 1268.9083333333333, L
457126, 1269.7944444444445, L
457436, 1270.6555555555556, L
457744, 1271.5111111111112, L
458044, 1272.3444444444444, L
458332, 1273.1444444444444, L
458646, 1274.0166666666667, L
458960, 1274.888888888889, L
459277, 1275.7694444444444, L
459574, 1276.5944444444444, L
459868, 1277.411111111111, L
460155, 1278.2083333333333, L
460447, 1279.0194444444444, L
460748, 1279.8555555555556, L
461061, 1280.725, L
461370, 1281.5833333333333, L
461667, 1282.4083333333333, L
461964, 1283.2333333333333, L
462261, 1284.0583333333334, L
462558, 1284.8833333333334, L
462852, 1285.7, L
463163, 1286.5638888888889, L
463475, 1287.4305555555557, L
463780, 1288.2777777777778, L
464081, 1289.1138888888888, L
464365, 1289.9027777777778, L
464649, 1290.6916666666666, L
464929, 1291.4694444444444, L
465236, 1292.3222222222223, L
465547, 1293.1861111111111, L
465849, 1294.025, L
466143, 1294.8416666666667, L
466445, 1295.6805555555557, L
466747, 1296.5194444444444, L
467037, 1297.325, L
467349, 1298.1916666666666, L
467664, 1299.0666666666666, L
467981, 1299.9472222222223, L
468286, 1300.7944444444445, L
468590, 1301.638888888889, L
468883, 1302.4527777777778, L
469169, 1303.2472222222223, L
469480, 1304.111111111111, L
469802, 1305.0055555555555, L
470115, 1305.875, L
470409, 1306.6916666666666, L
470712, 1307.5333333333333, L
471005, 1308.3472222222222, L
471292, 1309.1444444444444, L
471603, 1310.0083333333334, L
471915, 1310.875, L
472224, 1311.7333333333333, L
472523, 1312.5638888888889, L
472829, 1313.4138888888888, L
473121, 1314.225, L
473412, 1315.0333333333333, L
473712, 1315.8666666666666, L
474023, 1316.7305555555556, L
474334, 1317.5944444444444, L
474632, 1318.4222222222222, L
474928, 1319.2444444444445, L
475212, 1320.0333333333333, L
475500, 1320.8333333333333, L
475794, 1321.65, L
476101, 1322.5027777777777, L
476404, 1323.3444444444444, L
476701, 1324.1694444444445, L
477001, 1325.0027777777777, L
477294, 1325.8166666666666, L
477588, 1326.6333333333334, L
477872, 1327.4222222222222, L
478179, 1328.275, L
478491, 1329.1416666666667, L
478806, 1330.0166666666667, L
479104, 1330.8444444444444, L
479408, 1331.6888888888889, L
479706, 1332.5166666666667, L
480003, 1333.3416666666667, L
480327, 1334.2416666666666, L
480651, 1335.1416666666667, L
480963, 1336.0083333333334, L
481267, 1336.8527777777779, L
481575, 1337.7083333333333, L
481881, 1338.5583333333334, L
482177, 1339.3805555555555, L
482485, 1340.236111111111, L
482800, 1341.111111111111, L
483110, 1341.9722222222222, L
483411, 1342.8083333333334, L
483713, 1343.6472222222221, L
484007, 1344.463888888889, L
484296, 1345.2666666666667, L
484613, 1346.1472222222221, L
484937, 1347.0472222222222, L
485258, 1347.9388888888889, L
485555, 1348.763888888889, L
485861, 1349.6138888888888, L
486150, 1350.4166666666667, L
486443, 1351.2305555555556, L
486761, 1352.1138888888888, L
487075, 1352.986111111111, L
487384, 1353.8444444444444, L
487685, 1354.6805555555557, L
487991, 1355.5305555555556, L
488288, 1356.3555555555556, L
488575, 1357.1527777777778, L
488886, 1358.0166666666667, L
489198, 1358.8833333333334, L
489514, 1359.7611111111112, L
489809, 1360.5805555555555, L
490097, 1361.3805555555555, L
490379, 1362.1638888888888, L
490665, 1362.9583333333333, L
490950, 1363.75, L
491248, 1364.5777777777778, L
491537, 1365.3805555555555, L
491830, 1366.1944444444443, L
492106, 1366.9611111111112, L
492400, 1367.7777777777778, L
492667, 1368.5194444444444, L
492936, 1369.2666666666667, L
493230, 1370.0833333333333, L
493520, 1370.888888888889, L
493817, 1371.713888888889, L
494100, 1372.5, L
494391, 1373.3083333333334, L
494670, 1374.0833333333333, L
494955, 1374.875, L
495241, 1375.6694444444445, L
495555, 1376.5416666666667, L
495870, 1377.4166666666667, L
496180, 1378.2777777777778, L
496466, 1379.0722222222223, L
496771, 1379.9194444444445, L
497048, 1380.6888888888889, L
497327, 1381.463888888889, L
497617, 1382.2694444444444, L
497914, 1383.0944444444444, L
498207, 1383.9083333333333, L
498486, 1384.6833333333334, L
498768, 1385.4666666666667, L
499039, 1386.2194444444444, L
499312, 1386.9777777777779, L
499580, 1387.7222222222222, L
499888, 1388.5777777777778, L
500175, 1389.375, L
500461, 1390.1694444444445, L
500740, 1390.9444444444443, L
501021, 1391.725, L
501296, 1392.4888888888888, L
501569, 1393.2472222222223, L
501867, 1394.075, L
502159, 1394.8861111111112, L
502447, 1395.6861111111111, L
502722, 1396.45, L
503013, 1397.2583333333334, L
503291, 1398.0305555555556, L
503567, 1398.7972222222222, L
503834, 1399.5388888888888, L
504129, 1400.3583333333333, L
504419, 1401.1638888888888, L
504713, 1401.9805555555556, L
504999, 1402.775, L
505280, 1403.5555555555557, L
505556, 1404.3222222222223, L
505831, 1405.0861111111112, L
506124, 1405.9, L
506422, 1406.7277777777779, L
506717, 1407.5472222222222, L
506995, 1408.3194444444443, L
507286, 1409.1277777777777, L
507563, 1409.8972222222221, L
507841, 1410.6694444444445, L
508115, 1411.4305555555557, L
508403, 1412.2305555555556, L
508692, 1413.0333333333333, L
508986, 1413.85, L
509269, 1414.6361111111112, L
509551, 1415.4194444444445, L
509823, 1416.175, L
510097, 1416.9361111111111, L
510379, 1417.7194444444444, L
510679, 1418.5527777777777, L
510978, 1419.3833333333334, L
511269, 1420.1916666666666, L
511559, 1420.9972222222223, L
511840, 1421.7777777777778, L
512126, 1422.5722222222223, L
512403, 1423.3416666666667, L
512702, 1424.1722222222222, L
512996, 1424.9888888888888, L
513296, 1425.8222222222223, L
513579, 1426.6083333333333, L
513872, 1427.4222222222222, L
514160, 1428.2222222222222, L
514442, 1429.0055555555555, L
514730, 1429.8055555555557, L
515037, 1430.6583333333333, L
515345, 1431.513888888889, L
515638, 1432.3277777777778, L
515929, 1433.1361111111112, L
516223, 1433.9527777777778, L
516510, 1434.75, L
516802, 1435.5611111111111, L
517121, 1436.4472222222223, L
517430, 1437.3055555555557, L
517733, 1438.1472222222221, L
518036, 1438.9888888888888, L
518336, 1439.8222222222223, L
518627, 1440.6305555555555, L
518911, 1441.4194444444445, L
519219, 1442.275, L
519523, 1443.1194444444445, L
519833, 1443.9805555555556, L
520137, 1444.825, L
520431, 1445.6416666666667, L
520720, 1446.4444444444443, L
521002, 1447.2277777777779, L
521311, 1448.0861111111112, L
521612, 1448.9222222222222, L
521903, 1449.7305555555556, L
522185, 1450.513888888889, L
522475, 1451.3194444444443, L
522756, 1452.1, L
523037, 1452.8805555555555, L
523315, 1453.6527777777778, L
523610, 1454.4722222222222, L
523905, 1455.2916666666667, L
524206, 1456.1277777777777, L
524500, 1456.9444444444443, L
524791, 1457.7527777777777, L
525076, 1458.5444444444445, L
525359, 1459.3305555555555, L
525655, 1460.1527777777778, L
525964, 1461.0111111111112, L
526272, 1461.8666666666666, L
526563, 1462.675, L
526851, 1463.475, L
527150, 1464.3055555555557, L
527445, 1465.125, L
527746, 1465.9611111111112, L
528063, 1466.8416666666667, L
528382, 1467.7277777777779, L
528682, 1468.5611111111111, L
528993, 1469.425, L
529293, 1470.2583333333334, L
529587, 1471.075, L
529883, 1471.8972222222221, L
530200, 1472.7777777777778, L
530518, 1473.661111111111, L
530818, 1474.4944444444445, L
531113, 1475.3138888888889, L
531406, 1476.1277777777777, L
531700, 1476.9444444444443, L
532005, 1477.7916666666667, L
532323, 1478.675, L
532637, 1479.5472222222222, L
532936, 1480.3777777777777, L
533245, 1481.236111111111, L
533546, 1482.0722222222223, L
533842, 1482.8944444444444, L
534135, 1483.7083333333333, L
534450, 1484.5833333333333, L
534756, 1485.4333333333334, L
535057, 1486.2694444444444, L
535366, 1487.1277777777777, L
535661, 1487.9472222222223, L
535950, 1488.75, L
536238, 1489.55, L
536542, 1490.3944444444444, L
536848, 1491.2444444444445, L
537150, 1492.0833333333333, L
537447, 1492.9083333333333, L
537735, 1493.7083333333333, L
538030, 1494.5277777777778, L
538326, 1495.35, L
538641, 1496.225, L
538959, 1497.1083333333333, L
539279, 1497.9972222222223, L
539590, 1498.861111111111, L
539899, 1499.7194444444444, L
540199, 1500.5527777777777, L
540498, 1501.3833333333334, L
540812, 1502.2555555555555, L
541137, 1503.1583333333333, L
541457, 1504.0472222222222, L
541764, 1504.9, L
542070, 1505.75, L
542381, 1506.6138888888888, L
542680, 1507.4444444444443, L
543002, 1508.338888888889, L
543325, 1509.236111111111, L
543642, 1510.1166666666666, L
543948, 1510.9666666666667, L
544255, 1511.8194444444443, L
544550, 1512.638888888889, L
544843, 1513.4527777777778, L
545159, 1514.3305555555555, L
545484, 1515.2333333333333, L
545798, 1516.1055555555556, L
546103, 1516.9527777777778, L
546405, 1517.7916666666667, L
546696, 1518.6, L
546986, 1519.4055555555556, L
547308, 1520.3, L
547626, 1521.1833333333334, L
547938, 1522.05, L
548238, 1522.8833333333334, L
548545, 1523.736111111111, L
548841, 1524.5583333333334, L
549132, 1525.3666666666666, L
549446, 1526.2388888888888, L
549767, 1527.1305555555555, L
550072, 1527.9777777777779, L
550372, 1528.8111111111111, L
550678, 1529.661111111111, L
550973, 1530.4805555555556, L
551264, 1531.2888888888888, L
551591, 1532.1972222222223, L
551913, 1533.0916666666667, L
552231, 1533.975, L
552536, 1534.8222222222223, L
552850, 1535.6944444444443, L
553147, 1536.5194444444444, L
553434, 1537.3166666666666, L
553745, 1538.1805555555557, L
554060, 1539.0555555555557, L
554371, 1539.9194444444445, L
554677, 1540.7694444444444, L
554979, 1541.6083333333333, L
555262, 1542.3944444444444, L
555546, 1543.1833333333334, L
555850, 1544.0277777777778, L
556157, 1544.8805555555555, L
556460, 1545.7222222222222, L
556751, 1546.5305555555556, L
557045, 1547.3472222222222, L
557330, 1548.138888888889, L
557623, 1548.9527777777778, L
557916, 1549.7666666666667, L
558220, 1550.611111111111, L
558526, 1551.4611111111112, L
558827, 1552.2972222222222, L
559133, 1553.1472222222221, L
559434, 1553.9833333333333, L
559729, 1554.8027777777777, L
560025, 1555.625, L
560340, 1556.5, L
560660, 1557.388888888889, L
560963, 1558.2305555555556, L
561267, 1559.075, L
561563, 1559.8972222222221, L
561852, 1560.7, L
562135, 1561.486111111111, L
562453, 1562.3694444444445, L
562764, 1563.2333333333333, L
563068, 1564.0777777777778, L
563359, 1564.8861111111112, L
563661, 1565.725, L
563954, 1566.5388888888888, L
564243, 1567.3416666666667, L
564550, 1568.1944444444443, L
564866, 1569.0722222222223, L
565178, 1569.9388888888889, L
565476, 1570.7666666666667, L
565772, 1571.588888888889, L
566056, 1572.3777777777777, L
566336, 1573.1555555555556, L
566644, 1574.0111111111112, L
566953, 1574.8694444444445, L
567263, 1575.7305555555556, L
567556, 1576.5444444444445, L
567856, 1577.3777777777777, L
568146, 1578.1833333333334, L
568443, 1579.0083333333334, L
568735, 1579.8194444444443, L
569047, 1580.6861111111111, L
569357, 1581.5472222222222, L
569660, 1582.388888888889, L
569965, 1583.236111111111, L
570262, 1584.0611111111111, L
570553, 1584.8694444444445, L
570849, 1585.6916666666666, L
571160, 1586.5555555555557, L
571475, 1587.4305555555557, L
571775, 1588.263888888889, L
572084, 1589.1222222222223, L
572383, 1589.9527777777778, L
572685, 1590.7916666666667, L
572979, 1591.6083333333333, L
573291, 1592.475, L
573599, 1593.3305555555555, L
573904, 1594.1777777777777, L
574195, 1594.986111111111, L
574491, 1595.8083333333334, L
574784, 1596.6222222222223, L
575070, 1597.4166666666667, L
575381, 1598.2805555555556, L
575701, 1599.1694444444445, L
576011, 1600.0305555555556, L
576307, 1600.8527777777779, L
576606, 1601.6833333333334, L
576903, 1602.5083333333334, L
577191, 1603.3083333333334, L
577505, 1604.1805555555557, L
577819, 1605.0527777777777, L
578132, 1605.9222222222222, L
578430, 1606.75, L
578737, 1607.6027777777779, L
579034, 1608.4277777777777, L
579321, 1609.225, L
579630, 1610.0833333333333, L
579949, 1610.9694444444444, L
580268, 1611.8555555555556, L
580571, 1612.6972222222223, L
580875, 1613.5416666666667, L
581172, 1614.3666666666666, L
581464, 1615.1777777777777, L
581778, 1616.05, L
582093, 1616.925, L
582402, 1617.7833333333333, L
582696, 1618.6, L
583000, 1619.4444444444443, L
583294, 1620.2611111111112, L
583584, 1621.0666666666666, L
583883, 1621.8972222222221, L
584195, 1622.763888888889, L
584504, 1623.6222222222223, L
584808, 1624.4666666666667, L
585111, 1625.3083333333334, L
585394, 1626.0944444444444, L
585687, 1626.9083333333333, L
585969, 1627.6916666666666, L
586266, 1628.5166666666667, L
586571, 1629.3638888888888, L
586870, 1630.1944444444443, L
587166, 1631.0166666666667, L
587445, 1631.7916666666667, L
587729, 1632.5805555555555, L
588011, 1633.3638888888888, L
588310, 1634.1944444444443, L
588606, 1635.0166666666667, L
588904, 1635.8444444444444, L
589185, 1636.625, L
589472, 1637.4222222222222, L
589753, 1638.2027777777778, L
590026, 1638.9611111111112, L
590304, 1639.7333333333333, L
590599, 1640.5527777777777, L
590899, 1641.3861111111112, L
591194, 1642.2055555555555, L
591485, 1643.013888888889, L
591768, 1643.8, L
592051, 1644.5861111111112, L
592328, 1645.3555555555556, L
592627, 1646.1861111111111, L
592810, 1646.6944444444443, ~
592932, 1647.0333333333333, L
593232, 1647.8666666666666, L
593517, 1648.6583333333333, L
593808, 1649.4666666666667, L
593958, 1649.8833333333334, ~
594096, 1650.2666666666667, L
594377, 1651.0472222222222, L
594662, 1651.838888888889, L
594964, 1652.6777777777777, L
595267, 1653.5194444444444, L
595553, 1654.3138888888889, L
595851, 1655.1416666666667, L
596140, 1655.9444444444443, L
596428, 1656.7444444444445, L
596710, 1657.5277777777778, L
597025, 1658.4027777777778, L
597340, 1659.2777777777778, L
597648, 1660.1333333333334, L
597947, 1660.963888888889, L
598245, 1661.7916666666667, L
598537, 1662.6027777777779, L
598828, 1663.411111111111, L
599145, 1664.2916666666667, L
599465, 1665.1805555555557, L
599777, 1666.0472222222222, L
600080, 1666.888888888889, L
600378, 1667.7166666666667, L
600675, 1668.5416666666667, L
600964, 1669.3444444444444, L
601272, 1670.2, L
601585, 1671.0694444444443, L
601902, 1671.95, L
602199, 1672.775, L
602498, 1673.6055555555556, L
602784, 1674.4, L
603077, 1675.213888888889, L
603393, 1676.0916666666667, L
603707, 1676.963888888889, L
604023, 1677.8416666666667, L
604324, 1678.6777777777777, L
604627, 1679.5194444444444, L
604926, 1680.35, L
605212, 1681.1444444444444, L
605518, 1681.9944444444445, L
605829, 1682.8583333333333, L
606149, 1683.7472222222223, L
606449, 1684.5805555555555, L
606750, 1685.4166666666667, L
607044, 1686.2333333333333, L
607338, 1687.05, L
607648, 1687.911111111111, L
607976, 1688.8222222222223, L
608289, 1689.6916666666666, L
608587, 1690.5194444444444, L
608899, 1691.3861111111112, L
609206, 1692.2388888888888, L
609502, 1693.0611111111111, L
609802, 1693.8944444444444, L
610122, 1694.7833333333333, L
610440, 1695.6666666666667, L
610748, 1696.5222222222221, L
611053, 1697.3694444444445, L
611344, 1698.1777777777777, L
611639, 1698.9972222222223, L
611948, 1699.8555555555556, L
612269, 1700.7472222222223, L
612591, 1701.6416666666667, L
612890, 1702.4722222222222, L
613195, 1703.3194444444443, L
613488, 1704.1333333333334, L
613785, 1704.9583333333333, L
614086, 1705.7944444444445, L
614397, 1706.6583333333333, L
614703, 1707.5083333333334, L
615001, 1708.3361111111112, L
615305, 1709.1805555555557, L
615603, 1710.0083333333334, L
615895, 1710.8194444444443, L
616190, 1711.638888888889, L
616509, 1712.525, L
616830, 1713.4166666666667, L
617135, 1714.263888888889, L
617444, 1715.1222222222223, L
617740, 1715.9444444444443, L
618041, 1716.7805555555556, L
618336, 1717.6, L
618651, 1718.475, L
618962, 1719.338888888889, L
619278, 1720.2166666666667, L
619563, 1721.0083333333334, L
619859, 1721.8305555555555, L
620152, 1722.6444444444444, L
620439, 1723.4416666666666, L
620743, 1724.286111111111, L
621054, 1725.15, L
621357, 1725.9916666666666, L
621649, 1726.8027777777777, L
621931, 1727.5861111111112, L
622216, 1728.3777777777777, L
622495, 1729.1527777777778, L
622788, 1729.9666666666667, L
623094, 1730.8166666666666, L
623395, 1731.6527777777778, L
623675, 1732.4305555555557, L
623967, 1733.2416666666666, L
624252, 1734.0333333333333, L
624532, 1734.8111111111111, L
624800, 1735.5555555555557, L
625089, 1736.3583333333333, L
625381, 1737.1694444444445, L
625662, 1737.95, L
625934, 1738.7055555555555, L
626207, 1739.463888888889, L
626473, 1740.2027777777778, L
626737, 1740.9361111111111, L
627005, 1741.6805555555557, L
627298, 1742.4944444444445, L
627578, 1743.2722222222221, L
627861, 1744.0583333333334, L
628137, 1744.825, L
628417, 1745.6027777777779, L
628690, 1746.361111111111, L
628964, 1747.1222222222223, L
629252, 1747.9222222222222, L
629538, 1748.7166666666667, L
629823, 1749.5083333333334, L
630097, 1750.2694444444444, L
630374, 1751.0388888888888, L
630642, 1751.7833333333333, L
630918, 1752.55, L
631177, 1753.2694444444444, L
631461, 1754.0583333333334, L
631734, 1754.8166666666666, L
632020, 1755.611111111111, L
632313, 1756.425, L
632591, 1757.1972222222223, L
632861, 1757.9472222222223, L
633128, 1758.6888888888889, L
633402, 1759.45, L
633686, 1760.2388888888888, L
633971, 1761.0305555555556, L
634246, 1761.7944444444445, L
634514, 1762.5388888888888, L
634783, 1763.286111111111, L
635049, 1764.025, L
635319, 1764.775, L
635576, 1765.4888888888888, L
635853, 1766.2583333333334, L
636137, 1767.0472222222222, L
636429, 1767.8583333333333, L
636703, 1768.6194444444445, L
636985, 1769.4027777777778, L
637259, 1770.1638888888888, L
637551, 1770.975, L
637829, 1771.7472222222223, L
638117, 1772.5472222222222, L
638396, 1773.3222222222223, L
638709, 1774.1916666666666, L
638994, 1774.9833333333333, L
639264, 1775.7333333333333, L
639572, 1776.588888888889, L
639828, 1777.3, L
640145, 1778.1805555555557, L
640446, 1779.0166666666667, L
640750, 1779.861111111111, L
641039, 1780.6638888888888, L
641342, 1781.5055555555555, L
641589, 1782.1916666666666, L
641899, 1783.0527777777777, L
642182, 1783.838888888889, L
642487, 1784.6861111111111, L
642786, 1785.5166666666667, L
643069, 1786.3027777777777, L
643358, 1787.1055555555556, L
643640, 1787.888888888889, L
643916, 1788.6555555555556, L
644189, 1789.4138888888888, L
644487, 1790.2416666666666, L
644783, 1791.0638888888889, L
645069, 1791.8583333333333, L
645348, 1792.6333333333334, L
645652, 1793.4777777777779, L
645939, 1794.275, L
646216, 1795.0444444444445, L
646506, 1795.85, L
646810, 1796.6944444444443, L
647117, 1797.5472222222222, L
647413, 1798.3694444444445, L
647709, 1799.1916666666666, L
647994, 1799.9833333333333, L
648280, 1800.7777777777778, L
648565, 1801.5694444444443, L
648857, 1802.3805555555555, L
649148, 1803.1888888888889, L
649441, 1804.0027777777777, L
649724, 1804.7888888888888, L
