15, 0.041666666666666664, +
124, 0.34444444444444444, N
382, 1.0611111111111111, N
644, 1.788888888888889, N
892, 2.477777777777778, N
1149, 3.191666666666667, N
1393, 3.8694444444444445, N
1648, 4.5777777777777775, N
1891, 5.252777777777778, N
2147, 5.963888888888889, N
2392, 6.644444444444445, N
2630, 7.305555555555555, N
2880, 8.0, N
3128, 8.688888888888888, N
3377, 9.380555555555556, N
3622, 10.061111111111112, N
3871, 10.752777777777778, N
4119, 11.441666666666666, N
4368, 12.133333333333333, N
4624, 12.844444444444445, N
4871, 13.530555555555555, N
5119, 14.219444444444445, N
5361, 14.891666666666667, N
5617, 15.602777777777778, N
5865, 16.291666666666668, N
6109, 16.969444444444445, N
6361, 17.669444444444444, N
6610, 18.36111111111111, N
6862, 19.06111111111111, N
7117, 19.769444444444446, N
7377, 20.491666666666667, N
7633, 21.20277777777778, N
7887, 21.908333333333335, N
8150, 22.63888888888889, N
8405, 23.34722222222222, N
8658, 24.05, N
8908, 24.744444444444444, N
9168, 25.466666666666665, N
9424, 26.177777777777777, N
9677, 26.880555555555556, N
9940, 27.61111111111111, N
10195, 28.319444444444443, N
10445, 29.01388888888889, N
10702, 29.727777777777778, N
10962, 30.45, N
11220, 31.166666666666668, N
11465, 31.84722222222222, N
11732, 32.58888888888889, N
11977, 33.269444444444446, N
12232, 33.977777777777774, N
12490, 34.69444444444444, N
12745, 35.40277777777778, N
12998, 36.105555555555554, N
13249, 36.80277777777778, N
13512, 37.53333333333333, N
13762, 38.227777777777774, N
14013, 38.925, N
14258, 39.605555555555554, N
14506, 40.294444444444444, N
14757, 40.99166666666667, N
15000, 41.666666666666664, N
15260, 42.388888888888886, N
15509, 43.080555555555556, N
15759, 43.775, N
16014, 44.483333333333334, N
16269, 45.19166666666667, N
16528, 45.91111111111111, N
16779, 46.608333333333334, N
17034, 47.31666666666667, N
17282, 48.00555555555555, N
17535, 48.708333333333336, N
17790, 49.416666666666664, N
18049, 50.13611111111111, N
18295, 50.81944444444444, N
18546, 51.516666666666666, N
18801, 52.225, N
19050, 52.916666666666664, N
19305, 53.625, N
19552, 54.31111111111111, N
19807, 55.019444444444446, N
20057, 55.71388888888889, N
20314, 56.42777777777778, N
20575, 57.15277777777778, N
20833, 57.86944444444445, N
21088, 58.577777777777776, N
21345, 59.291666666666664, N
21601, 60.00277777777778, N
21858, 60.71666666666667, N
22109, 61.41388888888889, N
22367, 62.13055555555555, N
22611, 62.80833333333333, N
22865, 63.513888888888886, N
23116, 64.21111111111111, N
23373, 64.925, N
23620, 65.61111111111111, N
23868, 66.3, N
24124, 67.0111111111111, N
24370, 67.69444444444444, N
24626, 68.40555555555555, N
24872, 69.08888888888889, N
25124, 69.78888888888889, N
25372, 70.47777777777777, N
25626, 71.18333333333334, N
25878, 71.88333333333334, N
26125, 72.56944444444444, N
26370, 73.25, N
26618, 73.93888888888888, N
26868, 74.63333333333334, N
27115, 75.31944444444444, N
27361, 76.00277777777778, N
27609, 76.69166666666666, N
27857, 77.38055555555556, N
28107, 78.075, N
28354, 78.7611111111111, N
28609, 79.46944444444445, N
28858, 80.16111111111111, N
29108, 80.85555555555555, N
29360, 81.55555555555556, N
29610, 82.25, N
29866, 82.96111111111111, N
30110, 83.63888888888889, N
30361, 84.33611111111111, N
30607, 85.01944444444445, N
30856, 85.71111111111111, N
31105, 86.40277777777777, N
31355, 87.09722222222223, N
31599, 87.775, N
31847, 88.46388888888889, N
32096, 89.15555555555555, N
32344, 89.84444444444445, N
32594, 90.53888888888889, N
32837, 91.21388888888889, N
33083, 91.89722222222223, N
33333, 92.59166666666667, N
33581, 93.28055555555555, N
33830, 93.97222222222223, N
34080, 94.66666666666667, N
34323, 95.34166666666667, N
34566, 96.01666666666667, N
34817, 96.71388888888889, N
35060, 97.38888888888889, N
35303, 98.06388888888888, N
35546, 98.7388888888889, N
35789, 99.41388888888889, N
36035, 100.09722222222223, N
36282, 100.78333333333333, N
36535, 101.48611111111111, N
36784, 102.17777777777778, N
37031, 102.8638888888889, N
37280, 103.55555555555556, N
37533, 104.25833333333334, N
37785, 104.95833333333333, N
38030, 105.63888888888889, N
38284, 106.34444444444445, N
38537, 107.04722222222222, N
38785, 107.73611111111111, N
39042, 108.45, N
39295, 109.15277777777777, N
39547, 109.85277777777777, N
39793, 110.53611111111111, N
40050, 111.25, N
40301, 111.94722222222222, N
40552, 112.64444444444445, N
40803, 113.34166666666667, N
41057, 114.04722222222222, N
41310, 114.75, N
41556, 115.43333333333334, N
41817, 116.15833333333333, N
42064, 116.84444444444445, N
42313, 117.53611111111111, N
42569, 118.24722222222222, N
42822, 118.95, N
43074, 119.65, N
43319, 120.33055555555555, N
43573, 121.03611111111111, N
43817, 121.71388888888889, N
44069, 122.41388888888889, N
44317, 123.10277777777777, N
44564, 123.78888888888889, N
44813, 124.48055555555555, N
45058, 125.16111111111111, N
45317, 125.88055555555556, N
45567, 126.575, N
45817, 127.26944444444445, N
46067, 127.96388888888889, N
46321, 128.66944444444445, N
46570, 129.36111111111111, N
46823, 130.0638888888889, N
47084, 130.7888888888889, N
47338, 131.49444444444444, N
47590, 132.19444444444446, N
47848, 132.9111111111111, N
48109, 133.63611111111112, N
48363, 134.34166666666667, N
48610, 135.02777777777777, N
48870, 135.75, N
49122, 136.45, N
49377, 137.15833333333333, N
49639, 137.88611111111112, N
49895, 138.59722222222223, N
50146, 139.29444444444445, N
50399, 139.99722222222223, N
50665, 140.73611111111111, N
50920, 141.44444444444446, N
51178, 142.1611111111111, N
51437, 142.88055555555556, N
51694, 143.59444444444443, N
51949, 144.30277777777778, N
52207, 145.01944444444445, N
52468, 145.74444444444444, N
52722, 146.45, N
52978, 147.1611111111111, N
53237, 147.88055555555556, N
53494, 148.59444444444443, N
53747, 149.29722222222222, N
53990, 149.97222222222223, N
54242, 150.67222222222222, N
54489, 151.35833333333332, N
54737, 152.04722222222222, N
54992, 152.75555555555556, N
55242, 153.45, N
55491, 154.14166666666668, N
55741, 154.8361111111111, N
55995, 155.54166666666666, N
56244, 156.23333333333332, N
56496, 156.93333333333334, N
56747, 157.63055555555556, N
57000, 158.33333333333334, N
57252, 159.03333333333333, N
57503, 159.73055555555555, N
57761, 160.44722222222222, N
58010, 161.13888888888889, N
58263, 161.84166666666667, N
58517, 162.54722222222222, N
58768, 163.24444444444444, N
59023, 163.95277777777778, N
59272, 164.64444444444445, N
59528, 165.35555555555555, N
59779, 166.05277777777778, N
60031, 166.75277777777777, N
60283, 167.45277777777778, N
60537, 168.15833333333333, N
60786, 168.85, N
61034, 169.5388888888889, N
61290, 170.25, N
61537, 170.9361111111111, N
61789, 171.63611111111112, N
62035, 172.31944444444446, N
62286, 173.01666666666668, N
62540, 173.72222222222223, N
62791, 174.41944444444445, N
63048, 175.13333333333333, N
63297, 175.825, N
63551, 176.53055555555557, N
63807, 177.24166666666667, N
64070, 177.97222222222223, N
64329, 178.69166666666666, N
64583, 179.3972222222222, N
64841, 180.11388888888888, N
65100, 180.83333333333334, N
65354, 181.5388888888889, N
65612, 182.25555555555556, N
65870, 182.97222222222223, N
66126, 183.68333333333334, N
66380, 184.38888888888889, N
66645, 185.125, N
66902, 185.8388888888889, N
67160, 186.55555555555554, N
67421, 187.28055555555557, N
67678, 187.99444444444444, N
67942, 188.7277777777778, N
68201, 189.44722222222222, N
68465, 190.18055555555554, N
68723, 190.8972222222222, N
68981, 191.61388888888888, N
69248, 192.35555555555555, N
69510, 193.08333333333334, N
69771, 193.80833333333334, N
70026, 194.51666666666668, N
70284, 195.23333333333332, N
70538, 195.9388888888889, N
70795, 196.65277777777777, N
71054, 197.37222222222223, N
71309, 198.08055555555555, N
71555, 198.76388888888889, N
71818, 199.49444444444444, N
72069, 200.19166666666666, N
72326, 200.90555555555557, N
72575, 201.59722222222223, N
72834, 202.31666666666666, N
73090, 203.02777777777777, N
73342, 203.7277777777778, N
73604, 204.45555555555555, N
73853, 205.1472222222222, N
74105, 205.84722222222223, N
74354, 206.5388888888889, N
74609, 207.24722222222223, N
74857, 207.9361111111111, N
75098, 208.60555555555555, N
75352, 209.3111111111111, N
75600, 210.0, N
75848, 210.6888888888889, N
76101, 211.39166666666668, N
76359, 212.10833333333332, N
76615, 212.81944444444446, N
76869, 213.525, N
77135, 214.26388888888889, N
77392, 214.9777777777778, N
77647, 215.6861111111111, N
77898, 216.38333333333333, N
78154, 217.09444444444443, N
78410, 217.80555555555554, N
78662, 218.50555555555556, N
78925, 219.23611111111111, N
79174, 219.92777777777778, N
79421, 220.61388888888888, N
79681, 221.3361111111111, N
79935, 222.04166666666666, N
80188, 222.74444444444444, N
80435, 223.43055555555554, N
80694, 224.15, N
80947, 224.8527777777778, N
81205, 225.56944444444446, N
81467, 226.29722222222222, N
81727, 227.01944444444445, N
81976, 227.7111111111111, N
82233, 228.425, N
82493, 229.1472222222222, N
82749, 229.85833333333332, N
82999, 230.55277777777778, N
83256, 231.26666666666668, N
83509, 231.96944444444443, N
83764, 232.67777777777778, N
84019, 233.38611111111112, N
84282, 234.11666666666667, N
84532, 234.8111111111111, N
84788, 235.5222222222222, N
85055, 236.26388888888889, N
85317, 236.99166666666667, N
85580, 237.72222222222223, N
85836, 238.43333333333334, N
86099, 239.1638888888889, N
86352, 239.86666666666667, N
86615, 240.59722222222223, N
86882, 241.3388888888889, N
87145, 242.06944444444446, N
87404, 242.7888888888889, N
87671, 243.53055555555557, N
87930, 244.25, N
88191, 244.975, N
88445, 245.68055555555554, N
88705, 246.40277777777777, N
88962, 247.11666666666667, N
89217, 247.825, N
89482, 248.5611111111111, N
89734, 249.26111111111112, N
89993, 249.98055555555555, N
90247, 250.6861111111111, N
90509, 251.4138888888889, N
90761, 252.11388888888888, N
91014, 252.81666666666666, N
91266, 253.51666666666668, N
91516, 254.2111111111111, N
91765, 254.90277777777777, N
92016, 255.6, N
92265, 256.2916666666667, N
92511, 256.975, N
92758, 257.6611111111111, N
93010, 258.3611111111111, N
93257, 259.0472222222222, N
93509, 259.7472222222222, N
93751, 260.4194444444444, N
94000, 261.1111111111111, N
94241, 261.78055555555557, N
94489, 262.46944444444443, N
94732, 263.14444444444445, N
94977, 263.825, N
95220, 264.5, N
95462, 265.1722222222222, N
95712, 265.8666666666667, N
95954, 266.5388888888889, N
96202, 267.22777777777776, N
96441, 267.89166666666665, N
96687, 268.575, N
96932, 269.25555555555553, N
97178, 269.93888888888887, N
97422, 270.6166666666667, N
97670, 271.30555555555554, N
97909, 271.96944444444443, N
98155, 272.65277777777777, N
98403, 273.34166666666664, N
98649, 274.025, N
98897, 274.7138888888889, N
99140, 275.3888888888889, N
99387, 276.075, N
99642, 276.78333333333336, N
99895, 277.4861111111111, N
100150, 278.19444444444446, N
100398, 278.8833333333333, N
100650, 279.5833333333333, N
100898, 280.27222222222224, N
101154, 280.98333333333335, N
101411, 281.6972222222222, N
101660, 282.3888888888889, N
101917, 283.10277777777776, N
102166, 283.7944444444444, N
102424, 284.5111111111111, N
102673, 285.2027777777778, N
102934, 285.9277777777778, N
103185, 286.625, N
103434, 287.31666666666666, N
103691, 288.03055555555557, N
103944, 288.73333333333335, N
104196, 289.43333333333334, N
104437, 290.10277777777776, N
104687, 290.7972222222222, N
104930, 291.47222222222223, N
105176, 292.15555555555557, N
105427, 292.85277777777776, N
105671, 293.53055555555557, N
105917, 294.2138888888889, N
106159, 294.8861111111111, N
106409, 295.5805555555556, N
106656, 296.26666666666665, N
106898, 296.93888888888887, N
107142, 297.6166666666667, N
107387, 298.2972222222222, N
107632, 298.97777777777776, N
107871, 299.64166666666665, N
108125, 300.34722222222223, N
108367, 301.01944444444445, N
108609, 301.69166666666666, N
108856, 302.3777777777778, N
109108, 303.0777777777778, N
109352, 303.75555555555553, N
109591, 304.4194444444444, N
109842, 305.1166666666667, N
110085, 305.7916666666667, N
110329, 306.46944444444443, N
110576, 307.15555555555557, N
110829, 307.85833333333335, N
111078, 308.55, N
111322, 309.22777777777776, N
111584, 309.9555555555556, N
111835, 310.65277777777777, N
112090, 311.3611111111111, N
112337, 312.0472222222222, N
112596, 312.76666666666665, N
112848, 313.46666666666664, N
113105, 314.18055555555554, N
113365, 314.90277777777777, N
113619, 315.60833333333335, N
113872, 316.31111111111113, N
114130, 317.02777777777777, N
114389, 317.7472222222222, N
114648, 318.46666666666664, N
114896, 319.15555555555557, N
115155, 319.875, N
115405, 320.56944444444446, N
115659, 321.275, N
115920, 322.0, N
116175, 322.7083333333333, N
116428, 323.4111111111111, N
116680, 324.1111111111111, N
116944, 324.84444444444443, N
117200, 325.55555555555554, N
117452, 326.25555555555553, N
117708, 326.96666666666664, N
117962, 327.6722222222222, N
118216, 328.3777777777778, N
118479, 329.10833333333335, N
118744, 329.84444444444443, N
118999, 330.5527777777778, N
119258, 331.27222222222224, N
119525, 332.0138888888889, N
119788, 332.74444444444447, N
120041, 333.4472222222222, N
120303, 334.175, N
120553, 334.86944444444447, N
120810, 335.5833333333333, N
121066, 336.2944444444444, N
121329, 337.025, N
121584, 337.73333333333335, N
121839, 338.44166666666666, N
122096, 339.15555555555557, N
122351, 339.8638888888889, N
122603, 340.56388888888887, N
122844, 341.23333333333335, N
123102, 341.95, N
123346, 342.6277777777778, N
123595, 343.31944444444446, N
123847, 344.01944444444445, N
124101, 344.725, N
124349, 345.4138888888889, N
124602, 346.1166666666667, N
124859, 346.8305555555556, N
125109, 347.525, N
125361, 348.225, N
125607, 348.90833333333336, N
125854, 349.59444444444443, N
126103, 350.2861111111111, N
126349, 350.96944444444443, N
126604, 351.6777777777778, N
126845, 352.34722222222223, N
127093, 353.0361111111111, N
127340, 353.72222222222223, N
127594, 354.4277777777778, N
127844, 355.1222222222222, N
128093, 355.81388888888887, N
128349, 356.525, N
128591, 357.1972222222222, N
128847, 357.90833333333336, N
129095, 358.59722222222223, N
129353, 359.31388888888887, N
129599, 359.9972222222222, N
129847, 360.68611111111113, N
130102, 361.39444444444445, N
130353, 362.09166666666664, N
130605, 362.7916666666667, N
130852, 363.47777777777776, N
131104, 364.1777777777778, N
131354, 364.8722222222222, N
131606, 365.5722222222222, N
131862, 366.28333333333336, N
132114, 366.98333333333335, N
132370, 367.69444444444446, N
132619, 368.3861111111111, N
132876, 369.1, N
133126, 369.7944444444444, N
133376, 370.4888888888889, N
133628, 371.18888888888887, N
133870, 371.8611111111111, N
134122, 372.56111111111113, N
134368, 373.24444444444447, N
134620, 373.94444444444446, N
134867, 374.63055555555553, N
135111, 375.30833333333334, N
135362, 376.00555555555553, N
135613, 376.7027777777778, N
135862, 377.39444444444445, N
136108, 378.0777777777778, N
136357, 378.76944444444445, N
136606, 379.4611111111111, N
136856, 380.15555555555557, N
137110, 380.8611111111111, N
137360, 381.55555555555554, N
137614, 382.2611111111111, N
137863, 382.9527777777778, N
138116, 383.65555555555557, N
138366, 384.35, N
138617, 385.0472222222222, N
138861, 385.725, N
139112, 386.4222222222222, N
139359, 387.10833333333335, N
139606, 387.7944444444444, N
139855, 388.4861111111111, N
140106, 389.18333333333334, N
140352, 389.8666666666667, N
140598, 390.55, N
140853, 391.2583333333333, N
141102, 391.95, N
141349, 392.6361111111111, N
141602, 393.3388888888889, N
141850, 394.02777777777777, N
142096, 394.7111111111111, N
142346, 395.40555555555557, N
142600, 396.1111111111111, N
142846, 396.7944444444444, N
143087, 397.4638888888889, N
143338, 398.1611111111111, N
143586, 398.85, N
143837, 399.5472222222222, N
144079, 400.21944444444443, N
144334, 400.9277777777778, N
144585, 401.625, N
144835, 402.31944444444446, N
145092, 403.03333333333336, N
145346, 403.7388888888889, N
145601, 404.4472222222222, N
145853, 405.14722222222224, N
146119, 405.8861111111111, N
146378, 406.60555555555555, N
146634, 407.31666666666666, N
146893, 408.0361111111111, N
147152, 408.75555555555553, N
147405, 409.4583333333333, N
147665, 410.18055555555554, N
147920, 410.8888888888889, N
148174, 411.59444444444443, N
148422, 412.28333333333336, N
148687, 413.01944444444445, N
148941, 413.725, N
149198, 414.43888888888887, N
149450, 415.1388888888889, N
149708, 415.85555555555555, N
149963, 416.56388888888887, N
150222, 417.28333333333336, N
150489, 418.025, N
150748, 418.74444444444447, N
151003, 419.4527777777778, N
151268, 420.18888888888887, N
151529, 420.9138888888889, N
151788, 421.6333333333333, N
152039, 422.3305555555556, N
152298, 423.05, N
152554, 423.7611111111111, N
152812, 424.47777777777776, N
153078, 425.21666666666664, N
153334, 425.9277777777778, N
153591, 426.64166666666665, N
153850, 427.3611111111111, N
154109, 428.0805555555556, N
154366, 428.7944444444444, N
154616, 429.4888888888889, N
154877, 430.2138888888889, N
155131, 430.9194444444444, N
155385, 431.625, N
155647, 432.35277777777776, N
155903, 433.06388888888887, N
156160, 433.77777777777777, N
156414, 434.48333333333335, N
156676, 435.2111111111111, N
156926, 435.90555555555557, N
157175, 436.59722222222223, N
157427, 437.2972222222222, N
157678, 437.99444444444447, N
157921, 438.6694444444444, N
158174, 439.3722222222222, N
158424, 440.06666666666666, N
158673, 440.7583333333333, N
158919, 441.44166666666666, N
159177, 442.15833333333336, N
159426, 442.85, N
159677, 443.5472222222222, N
159916, 444.2111111111111, N
160174, 444.9277777777778, N
160419, 445.60833333333335, N
160666, 446.2944444444444, N
160919, 446.9972222222222, N
161171, 447.6972222222222, N
161421, 448.39166666666665, N
161671, 449.0861111111111, N
161929, 449.8027777777778, N
162182, 450.50555555555553, N
162436, 451.2111111111111, N
162687, 451.90833333333336, N
162940, 452.6111111111111, N
163195, 453.31944444444446, N
163453, 454.0361111111111, N
163711, 454.7527777777778, N
163964, 455.4555555555556, N
164218, 456.1611111111111, N
164479, 456.8861111111111, N
164737, 457.60277777777776, N
164994, 458.31666666666666, N
165243, 459.0083333333333, N
165502, 459.72777777777776, N
165749, 460.4138888888889, N
166004, 461.1222222222222, N
166261, 461.8361111111111, N
166514, 462.5388888888889, N
166769, 463.2472222222222, N
167019, 463.94166666666666, N
167281, 464.6694444444444, N
167531, 465.3638888888889, N
167787, 466.075, N
168036, 466.76666666666665, N
168287, 467.4638888888889, N
168539, 468.1638888888889, N
168794, 468.8722222222222, N
169051, 469.5861111111111, N
169304, 470.2888888888889, N
169556, 470.9888888888889, N
169811, 471.6972222222222, N
170067, 472.40833333333336, N
170324, 473.1222222222222, N
170578, 473.8277777777778, N
170835, 474.5416666666667, N
171091, 475.2527777777778, N
171347, 475.9638888888889, N
171607, 476.68611111111113, N
171861, 477.39166666666665, N
172123, 478.11944444444447, N
172380, 478.8333333333333, N
172648, 479.5777777777778, N
172909, 480.3027777777778, N
173165, 481.0138888888889, N
173426, 481.7388888888889, N
173681, 482.4472222222222, N
173942, 483.1722222222222, N
174196, 483.8777777777778, N
174456, 484.6, N
174709, 485.3027777777778, N
174963, 486.0083333333333, N
175222, 486.72777777777776, N
175480, 487.44444444444446, N
175734, 488.15, N
175986, 488.85, N
176243, 489.56388888888887, N
176499, 490.275, N
176755, 490.9861111111111, N
177017, 491.7138888888889, N
177272, 492.4222222222222, N
177527, 493.13055555555553, N
177790, 493.8611111111111, N
178048, 494.5777777777778, N
178305, 495.2916666666667, N
178556, 495.9888888888889, N
178811, 496.6972222222222, N
179066, 497.40555555555557, N
179320, 498.1111111111111, N
179579, 498.8305555555556, N
179834, 499.5388888888889, N
180088, 500.24444444444447, N
180347, 500.9638888888889, N
180609, 501.69166666666666, N
180868, 502.4111111111111, N
181121, 503.1138888888889, N
181379, 503.8305555555556, N
181634, 504.5388888888889, N
181892, 505.25555555555553, N
182155, 505.9861111111111, N
182416, 506.7111111111111, N
182675, 507.43055555555554, N
182930, 508.1388888888889, N
183196, 508.8777777777778, N
183457, 509.60277777777776, N
183712, 510.31111111111113, N
183977, 511.0472222222222, N
184236, 511.76666666666665, N
184497, 512.4916666666667, N
184765, 513.2361111111111, N
185033, 513.9805555555556, N
185300, 514.7222222222222, N
185566, 515.4611111111111, N
185837, 516.2138888888888, N
186106, 516.9611111111111, N
186362, 517.6722222222222, N
186632, 518.4222222222222, N
186896, 519.1555555555556, N
187156, 519.8777777777777, N
187423, 520.6194444444444, N
187683, 521.3416666666667, N
187941, 522.0583333333333, N
188199, 522.775, N
188466, 523.5166666666667, N
188729, 524.2472222222223, N
188985, 524.9583333333334, N
189253, 525.7027777777778, N
189514, 526.4277777777778, N
189772, 527.1444444444444, N
190037, 527.8805555555556, N
190299, 528.6083333333333, N
190560, 529.3333333333334, N
190820, 530.0555555555555, N
191089, 530.8027777777778, N
191348, 531.5222222222222, N
191601, 532.225, N
191863, 532.9527777777778, N
192117, 533.6583333333333, N
192376, 534.3777777777777, N
192637, 535.1027777777778, N
192894, 535.8166666666667, N
193146, 536.5166666666667, N
193405, 537.2361111111111, N
193663, 537.9527777777778, N
193919, 538.6638888888889, N
194170, 539.3611111111111, N
194418, 540.05, N
194672, 540.7555555555556, N
194918, 541.4388888888889, N
195165, 542.125, N
195416, 542.8222222222222, N
195663, 543.5083333333333, N
195900, 544.1666666666666, N
196149, 544.8583333333333, N
196401, 545.5583333333333, N
196650, 546.25, N
196890, 546.9166666666666, N
197146, 547.6277777777777, N
197387, 548.2972222222222, N
197637, 548.9916666666667, N
197889, 549.6916666666667, N
198145, 550.4027777777778, N
198392, 551.0888888888888, N
198639, 551.775, N
198896, 552.4888888888889, N
199146, 553.1833333333333, N
199398, 553.8833333333333, N
199641, 554.5583333333333, N
199889, 555.2472222222223, N
200138, 555.9388888888889, N
200387, 556.6305555555556, N
200639, 557.3305555555555, N
200892, 558.0333333333333, N
201139, 558.7194444444444, N
201393, 559.425, N
201653, 560.1472222222222, N
201906, 560.85, N
202160, 561.5555555555555, N
202413, 562.2583333333333, N
202664, 562.9555555555555, N
202914, 563.65, N
203164, 564.3444444444444, N
203417, 565.0472222222222, N
203665, 565.7361111111111, N
203911, 566.4194444444445, N
204159, 567.1083333333333, N
204411, 567.8083333333333, N
204658, 568.4944444444444, N
204906, 569.1833333333333, N
205158, 569.8833333333333, N
205406, 570.5722222222222, N
205657, 571.2694444444444, N
205909, 571.9694444444444, N
206162, 572.6722222222222, N
206409, 573.3583333333333, N
206659, 574.0527777777778, N
206909, 574.7472222222223, N
207156, 575.4333333333333, N
207407, 576.1305555555556, N
207644, 576.7888888888889, N
207896, 577.4888888888889, N
208142, 578.1722222222222, N
208387, 578.8527777777778, N
208639, 579.5527777777778, N
208884, 580.2333333333333, N
209134, 580.9277777777778, N
209381, 581.6138888888889, N
209636, 582.3222222222222, N
209886, 583.0166666666667, N
210138, 583.7166666666667, N
210386, 584.4055555555556, N
210635, 585.0972222222222, N
210882, 585.7833333333333, N
211136, 586.4888888888889, N
211385, 587.1805555555555, N
211630, 587.8611111111111, N
211874, 588.5388888888889, N
212120, 589.2222222222222, N
212369, 589.9138888888889, N
212615, 590.5972222222222, N
212854, 591.2611111111111, N
213100, 591.9444444444445, N
213342, 592.6166666666667, N
213587, 593.2972222222222, N
213834, 593.9833333333333, N
214082, 594.6722222222222, N
214328, 595.3555555555556, N
214573, 596.0361111111112, N
214823, 596.7305555555556, N
215074, 597.4277777777778, N
215326, 598.1277777777777, N
215568, 598.8, N
215819, 599.4972222222223, N
216064, 600.1777777777778, N
216312, 600.8666666666667, N
216563, 601.5638888888889, N
216813, 602.2583333333333, N
217061, 602.9472222222222, N
217307, 603.6305555555556, N
217562, 604.3388888888888, N
217811, 605.0305555555556, N
218060, 605.7222222222222, N
218308, 606.4111111111112, N
218552, 607.0888888888888, N
218803, 607.7861111111112, N
219053, 608.4805555555556, N
219312, 609.2, N
219564, 609.9, N
219815, 610.5972222222222, N
220075, 611.3194444444445, N
220329, 612.025, N
220585, 612.7361111111111, N
220826, 613.4055555555556, N
221083, 614.1194444444444, N
221329, 614.8027777777778, N
221579, 615.4972222222223, N
221832, 616.2, N
222086, 616.9055555555556, N
222338, 617.6055555555556, N
222589, 618.3027777777778, N
222850, 619.0277777777778, N
223104, 619.7333333333333, N
223354, 620.4277777777778, N
223609, 621.1361111111111, N
223863, 621.8416666666667, N
224114, 622.5388888888889, N
224370, 623.25, N
224625, 623.9583333333334, N
224879, 624.6638888888889, N
225127, 625.3527777777778, N
225390, 626.0833333333334, N
225640, 626.7777777777778, N
225892, 627.4777777777778, N
226139, 628.1638888888889, N
226392, 628.8666666666667, N
226642, 629.5611111111111, N
226889, 630.2472222222223, N
227148, 630.9666666666667, N
227398, 631.6611111111112, N
227645, 632.3472222222222, N
227899, 633.0527777777778, N
228157, 633.7694444444444, N
228414, 634.4833333333333, N
228660, 635.1666666666666, N
228921, 635.8916666666667, N
229172, 636.5888888888888, N
229426, 637.2944444444445, N
229686, 638.0166666666667, N
229943, 638.7305555555556, N
230192, 639.4222222222222, N
230442, 640.1166666666667, N
230704, 640.8444444444444, N
230958, 641.55, N
231211, 642.2527777777777, N
231461, 642.9472222222222, N
231716, 643.6555555555556, N
231964, 644.3444444444444, N
232219, 645.0527777777778, N
232475, 645.7638888888889, N
232724, 646.4555555555555, N
232970, 647.1388888888889, N
233224, 647.8444444444444, N
233478, 648.55, N
233728, 649.2444444444444, N
233975, 649.9305555555555, N
234229, 650.6361111111111, N
234477, 651.325, N
234721, 652.0027777777777, N
234972, 652.7, N
235223, 653.3972222222222, N
235467, 654.075, N
235715, 654.7638888888889, N
235972, 655.4777777777778, N
236218, 656.1611111111112, N
236471, 656.8638888888889, N
236717, 657.5472222222222, N
236973, 658.2583333333333, N
237218, 658.9388888888889, N
237472, 659.6444444444444, N
237722, 660.3388888888888, N
237971, 661.0305555555556, N
238219, 661.7194444444444, N
238468, 662.4111111111112, N
238725, 663.125, N
238971, 663.8083333333333, N
239217, 664.4916666666667, N
239468, 665.1888888888889, N
239716, 665.8777777777777, N
239964, 666.5666666666667, N
240216, 667.2666666666667, N
240472, 667.9777777777778, N
240719, 668.6638888888889, N
240969, 669.3583333333333, N
241226, 670.0722222222222, N
241479, 670.775, N
241735, 671.4861111111111, N
241979, 672.1638888888889, N
242235, 672.875, N
242479, 673.5527777777778, N
242728, 674.2444444444444, N
242979, 674.9416666666667, N
243224, 675.6222222222223, N
243468, 676.3, N
243712, 676.9777777777778, N
243965, 677.6805555555555, N
244212, 678.3666666666667, N
244463, 679.0638888888889, N
244539, 679.275, ~
244708, 679.7444444444444, N
244958, 680.4388888888889, N
245212, 681.1444444444444, N
245468, 681.8555555555556, N
245725, 682.5694444444445, N
245976, 683.2666666666667, N
246226, 683.9611111111111, N
246478, 684.6611111111112, N
246731, 685.3638888888889, N
246985, 686.0694444444445, N
247232, 686.7555555555556, N
247481, 687.4472222222222, N
247728, 688.1333333333333, N
247976, 688.8222222222222, N
248226, 689.5166666666667, N
248479, 690.2194444444444, N
248726, 690.9055555555556, N
248976, 691.6, N
249232, 692.3111111111111, N
249490, 693.0277777777778, N
249747, 693.7416666666667, N
250001, 694.4472222222222, N
250194, 694.9833333333333, ~
250258, 695.1611111111112, N
250517, 695.8805555555556, N
250772, 696.5888888888888, N
251029, 697.3027777777778, N
251279, 697.9972222222223, N
251534, 698.7055555555555, N
251787, 699.4083333333333, N
252044, 700.1222222222223, N
252304, 700.8444444444444, N
252561, 701.5583333333333, N
252831, 702.3083333333333, N
253098, 703.05, N
253372, 703.8111111111111, N
253598, 704.4388888888889, A
253945, 705.4027777777778, N
254237, 706.2138888888888, N
254539, 707.0527777777778, N
254824, 707.8444444444444, N
255093, 708.5916666666667, N
255363, 709.3416666666667, N
255626, 710.0722222222222, N
255886, 710.7944444444445, N
256146, 711.5166666666667, N
256400, 712.2222222222222, N
256659, 712.9416666666667, N
256906, 713.6277777777777, N
257170, 714.3611111111111, N
257421, 715.0583333333333, N
257676, 715.7666666666667, N
257923, 716.4527777777778, N
258177, 717.1583333333333, N
258429, 717.8583333333333, N
258679, 718.5527777777778, N
258937, 719.2694444444444, N
259184, 719.9555555555555, N
259432, 720.6444444444444, N
259681, 721.3361111111111, N
259931, 722.0305555555556, N
260182, 722.7277777777778, N
260421, 723.3916666666667, N
260671, 724.0861111111111, N
260917, 724.7694444444444, N
261165, 725.4583333333334, N
261416, 726.1555555555556, N
261668, 726.8555555555556, N
261918, 727.55, N
262161, 728.225, N
262421, 728.9472222222222, N
262672, 729.6444444444444, N
262923, 730.3416666666667, N
263170, 731.0277777777778, N
263422, 731.7277777777778, N
263670, 732.4166666666666, N
263918, 733.1055555555556, N
264173, 733.8138888888889, N
264425, 734.5138888888889, N
264667, 735.1861111111111, N
264912, 735.8666666666667, N
265164, 736.5666666666667, N
265407, 737.2416666666667, N
265645, 737.9027777777778, N
265893, 738.5916666666667, N
266133, 739.2583333333333, N
266377, 739.9361111111111, N
266624, 740.6222222222223, N
266878, 741.3277777777778, N
267123, 742.0083333333333, N
267367, 742.6861111111111, N
267623, 743.3972222222222, N
267871, 744.0861111111111, N
268119, 744.775, N
268362, 745.45, N
268617, 746.1583333333333, N
268869, 746.8583333333333, N
269118, 747.55, N
269374, 748.2611111111111, N
269632, 748.9777777777778, N
269881, 749.6694444444445, N
270133, 750.3694444444444, N
270392, 751.0888888888888, N
270645, 751.7916666666666, N
270892, 752.4777777777778, N
271145, 753.1805555555555, N
271392, 753.8666666666667, N
271642, 754.5611111111111, N
271889, 755.2472222222223, N
272139, 755.9416666666667, N
272384, 756.6222222222223, N
272628, 757.3, N
272879, 757.9972222222223, N
273131, 758.6972222222222, N
273375, 759.375, N
273616, 760.0444444444445, N
273869, 760.7472222222223, N
274057, 761.2694444444444, ~
274108, 761.4111111111112, N
274353, 762.0916666666667, N
274603, 762.7861111111112, N
274852, 763.4777777777778, N
275097, 764.1583333333333, N
275344, 764.8444444444444, N
275597, 765.5472222222222, N
275847, 766.2416666666667, N
276093, 766.925, N
276335, 767.5972222222222, N
276583, 768.2861111111112, N
276826, 768.9611111111111, N
277070, 769.6388888888889, N
277318, 770.3277777777778, N
277566, 771.0166666666667, N
277807, 771.6861111111111, N
278048, 772.3555555555556, N
278302, 773.0611111111111, N
278493, 773.5916666666667, A
278788, 774.4111111111112, N
279030, 775.0833333333334, N
279281, 775.7805555555556, N
279526, 776.4611111111111, N
279781, 777.1694444444445, N
280035, 777.875, N
280289, 778.5805555555555, N
280544, 779.2888888888889, N
280799, 779.9972222222223, N
281060, 780.7222222222222, N
281317, 781.4361111111111, N
281569, 782.1361111111111, N
281633, 782.3138888888889, ~
281825, 782.8472222222222, N
282073, 783.5361111111112, N
282324, 784.2333333333333, N
282577, 784.9361111111111, N
282826, 785.6277777777777, N
283076, 786.3222222222222, N
283326, 787.0166666666667, N
283586, 787.7388888888889, N
283835, 788.4305555555555, N
284093, 789.1472222222222, N
284341, 789.8361111111111, N
284595, 790.5416666666666, N
284847, 791.2416666666667, N
285100, 791.9444444444445, N
285356, 792.6555555555556, N
285601, 793.3361111111111, N
285851, 794.0305555555556, N
286099, 794.7194444444444, N
286349, 795.4138888888889, N
286597, 796.1027777777778, N
286842, 796.7833333333333, N
287089, 797.4694444444444, N
287335, 798.1527777777778, N
287583, 798.8416666666667, N
287832, 799.5333333333333, N
288081, 800.225, N
288327, 800.9083333333333, N
288573, 801.5916666666667, N
288825, 802.2916666666666, N
289073, 802.9805555555556, N
289322, 803.6722222222222, N
289559, 804.3305555555555, N
289806, 805.0166666666667, N
290047, 805.6861111111111, N
290290, 806.3611111111111, N
290534, 807.0388888888889, N
290683, 807.4527777777778, ~
290777, 807.7138888888888, N
291015, 808.375, N
291253, 809.0361111111112, N
291497, 809.7138888888888, N
291738, 810.3833333333333, N
291981, 811.0583333333333, N
292217, 811.7138888888888, N
292459, 812.3861111111111, N
292703, 813.0638888888889, N
292946, 813.7388888888889, N
293196, 814.4333333333333, N
293440, 815.1111111111111, N
293686, 815.7944444444445, N
293926, 816.4611111111111, N
294180, 817.1666666666666, N
294425, 817.8472222222222, N
294485, 818.0138888888889, ~
294670, 818.5277777777778, N
294910, 819.1944444444445, N
295153, 819.8694444444444, N
295390, 820.5277777777778, N
295629, 821.1916666666667, N
295874, 821.8722222222223, N
296112, 822.5333333333333, N
296205, 822.7916666666666, ~
296348, 823.1888888888889, N
296585, 823.8472222222222, N
296720, 824.2222222222222, ~
296828, 824.5222222222222, N
297070, 825.1944444444445, N
297307, 825.8527777777778, N
297542, 826.5055555555556, N
297780, 827.1666666666666, N
298021, 827.8361111111111, N
298260, 828.5, N
298503, 829.175, N
298601, 829.4472222222222, ~
298743, 829.8416666666667, N
298983, 830.5083333333333, N
299220, 831.1666666666666, N
299467, 831.8527777777778, N
299708, 832.5222222222222, N
299947, 833.1861111111111, N
300186, 833.85, N
300429, 834.525, N
300521, 834.7805555555556, ~
300670, 835.1944444444445, N
300910, 835.8611111111111, N
301162, 836.5611111111111, N
301401, 837.225, N
301643, 837.8972222222222, N
301885, 838.5694444444445, N
302136, 839.2666666666667, N
302376, 839.9333333333333, N
302614, 840.5944444444444, N
302856, 841.2666666666667, N
303098, 841.9388888888889, N
303338, 842.6055555555556, N
303577, 843.2694444444444, N
303820, 843.9444444444445, N
304058, 844.6055555555556, N
304296, 845.2666666666667, N
304537, 845.9361111111111, N
304781, 846.6138888888889, N
305023, 847.2861111111112, N
305262, 847.95, N
305504, 848.6222222222223, N
305749, 849.3027777777778, N
305996, 849.9888888888889, N
306237, 850.6583333333333, N
306486, 851.35, N
306731, 852.0305555555556, N
306969, 852.6916666666667, N
307215, 853.375, N
307465, 854.0694444444445, N
307708, 854.7444444444444, N
307945, 855.4027777777778, N
308193, 856.0916666666667, N
308435, 856.7638888888889, N
308676, 857.4333333333333, N
308924, 858.1222222222223, N
309172, 858.8111111111111, N
309414, 859.4833333333333, N
309655, 860.1527777777778, N
309904, 860.8444444444444, N
310151, 861.5305555555556, N
310400, 862.2222222222222, N
310638, 862.8833333333333, N
310890, 863.5833333333334, N
311133, 864.2583333333333, N
311377, 864.9361111111111, N
311626, 865.6277777777777, N
311877, 866.325, N
312119, 866.9972222222223, N
312368, 867.6888888888889, N
312621, 868.3916666666667, N
312870, 869.0833333333334, N
313116, 869.7666666666667, N
313358, 870.4388888888889, N
313608, 871.1333333333333, N
313853, 871.8138888888889, N
314100, 872.5, N
314354, 873.2055555555555, N
314601, 873.8916666666667, N
314850, 874.5833333333334, N
315095, 875.2638888888889, N
315350, 875.9722222222222, N
315595, 876.6527777777778, N
315839, 877.3305555555555, N
316088, 878.0222222222222, N
316335, 878.7083333333334, N
316580, 879.3888888888889, N
316828, 880.0777777777778, N
317081, 880.7805555555556, N
317328, 881.4666666666667, N
317579, 882.1638888888889, N
317835, 882.875, N
318090, 883.5833333333334, N
318342, 884.2833333333333, N
318594, 884.9833333333333, N
318851, 885.6972222222222, N
319106, 886.4055555555556, N
319361, 887.1138888888889, N
319623, 887.8416666666667, N
319880, 888.5555555555555, N
320136, 889.2666666666667, N
320392, 889.9777777777778, N
320655, 890.7083333333334, N
320908, 891.4111111111112, N
321163, 892.1194444444444, N
321419, 892.8305555555555, N
321672, 893.5333333333333, N
321929, 894.2472222222223, N
322183, 894.9527777777778, N
322442, 895.6722222222222, N
322693, 896.3694444444444, N
322944, 897.0666666666667, N
323206, 897.7944444444445, N
323459, 898.4972222222223, N
323718, 899.2166666666667, N
323969, 899.9138888888889, N
324226, 900.6277777777777, N
324478, 901.3277777777778, N
324734, 902.0388888888889, N
324991, 902.7527777777777, N
325242, 903.45, N
325492, 904.1444444444444, N
325749, 904.8583333333333, N
326001, 905.5583333333333, N
326260, 906.2777777777778, N
326507, 906.9638888888888, N
326764, 907.6777777777778, N
327015, 908.375, N
327275, 909.0972222222222, N
327536, 909.8222222222222, N
327796, 910.5444444444445, N
328053, 911.2583333333333, N
328310, 911.9722222222222, N
328568, 912.6888888888889, N
328829, 913.4138888888889, N
329079, 914.1083333333333, N
329333, 914.8138888888889, N
329581, 915.5027777777777, N
329835, 916.2083333333334, N
330093, 916.925, N
330350, 917.6388888888889, N
330606, 918.35, N
330859, 919.0527777777778, N
331122, 919.7833333333333, N
331376, 920.4888888888889, N
331631, 921.1972222222222, N
331883, 921.8972222222222, N
332137, 922.6027777777778, N
332390, 923.3055555555555, N
332646, 924.0166666666667, N
332903, 924.7305555555556, N
333157, 925.4361111111111, N
333413, 926.1472222222222, N
333672, 926.8666666666667, N
333925, 927.5694444444445, N
334184, 928.2888888888889, N
334435, 928.9861111111111, N
334693, 929.7027777777778, N
334950, 930.4166666666666, N
335206, 931.1277777777777, N
335465, 931.8472222222222, N
335721, 932.5583333333333, N
335974, 933.2611111111111, N
336231, 933.975, N
336488, 934.6888888888889, N
336746, 935.4055555555556, N
336994, 936.0944444444444, N
337253, 936.8138888888889, N
337507, 937.5194444444444, N
337764, 938.2333333333333, N
338021, 938.9472222222222, N
338281, 939.6694444444445, N
338530, 940.3611111111111, N
338779, 941.0527777777778, N
339037, 941.7694444444444, N
339293, 942.4805555555556, N
339540, 943.1666666666666, N
339790, 943.8611111111111, N
340041, 944.5583333333333, N
340295, 945.2638888888889, N
340549, 945.9694444444444, N
340805, 946.6805555555555, N
341059, 947.3861111111111, N
341307, 948.075, N
341561, 948.7805555555556, N
341814, 949.4833333333333, N
342070, 950.1944444444445, N
342315, 950.875, N
342569, 951.5805555555555, N
342819, 952.275, N
343071, 952.975, N
343327, 953.6861111111111, N
343581, 954.3916666666667, N
343829, 955.0805555555555, N
344081, 955.7805555555556, N
344339, 956.4972222222223, N
344592, 957.2, N
344842, 957.8944444444444, N
345100, 958.6111111111111, N
345354, 959.3166666666667, N
345609, 960.025, N
345865, 960.7361111111111, N
346125, 961.4583333333334, N
346377, 962.1583333333333, N
346627, 962.8527777777778, N
346884, 963.5666666666667, N
347138, 964.2722222222222, N
347393, 964.9805555555556, N
347640, 965.6666666666666, N
347898, 966.3833333333333, N
348149, 967.0805555555555, N
348399, 967.775, N
348655, 968.4861111111111, N
348907, 969.1861111111111, N
349156, 969.8777777777777, N
349408, 970.5777777777778, N
349664, 971.2888888888889, N
349916, 971.9888888888889, N
350163, 972.675, N
350416, 973.3777777777777, N
350667, 974.075, N
350916, 974.7666666666667, N
351169, 975.4694444444444, N
351425, 976.1805555555555, N
351675, 976.875, N
351922, 977.5611111111111, N
352182, 978.2833333333333, N
352433, 978.9805555555556, N
352689, 979.6916666666667, N
352939, 980.3861111111111, N
353203, 981.1194444444444, N
353463, 981.8416666666667, N
353725, 982.5694444444445, N
353992, 983.3111111111111, N
354254, 984.0388888888889, N
354516, 984.7666666666667, N
354783, 985.5083333333333, N
355050, 986.25, N
355313, 986.9805555555556, N
355569, 987.6916666666667, N
355835, 988.4305555555555, N
356092, 989.1444444444444, N
356351, 989.8638888888889, N
356617, 990.6027777777778, N
356877, 991.325, N
357135, 992.0416666666666, N
357397, 992.7694444444444, N
357668, 993.5222222222222, N
357930, 994.25, N
358185, 994.9583333333334, N
358450, 995.6944444444445, N
358706, 996.4055555555556, N
358967, 997.1305555555556, N
359230, 997.8611111111111, N
359485, 998.5694444444445, N
359737, 999.2694444444444, N
359992, 999.9777777777778, N
360249, 1000.6916666666667, N
360496, 1001.3777777777777, N
360745, 1002.0694444444445, N
360996, 1002.7666666666667, N
361245, 1003.4583333333334, N
361494, 1004.15, N
361750, 1004.8611111111111, N
362009, 1005.5805555555555, N
362263, 1006.2861111111112, N
362517, 1006.9916666666667, N
362781, 1007.725, N
363035, 1008.4305555555555, N
363297, 1009.1583333333333, N
363547, 1009.8527777777778, N
363804, 1010.5666666666667, N
364053, 1011.2583333333333, N
364308, 1011.9666666666667, N
364563, 1012.675, N
364805, 1013.3472222222222, N
365054, 1014.0388888888889, N
365307, 1014.7416666666667, N
365557, 1015.4361111111111, N
365809, 1016.1361111111111, N
366054, 1016.8166666666667, N
366311, 1017.5305555555556, N
366559, 1018.2194444444444, N
366811, 1018.9194444444445, N
367065, 1019.625, N
367316, 1020.3222222222222, N
367567, 1021.0194444444444, N
367816, 1021.7111111111111, N
368077, 1022.4361111111111, N
368323, 1023.1194444444444, N
368577, 1023.825, N
368826, 1024.5166666666667, N
369079, 1025.2194444444444, N
369336, 1025.9333333333334, N
369596, 1026.6555555555556, N
369855, 1027.375, N
370112, 1028.088888888889, N
370370, 1028.8055555555557, N
370638, 1029.55, N
370895, 1030.263888888889, N
371156, 1030.9888888888888, N
371410, 1031.6944444444443, N
371663, 1032.3972222222221, N
371920, 1033.111111111111, N
372174, 1033.8166666666666, N
372433, 1034.536111111111, N
372686, 1035.2388888888888, N
372938, 1035.9388888888889, N
373191, 1036.6416666666667, N
373446, 1037.35, N
373708, 1038.0777777777778, N
373956, 1038.7666666666667, N
374217, 1039.4916666666666, N
374478, 1040.2166666666667, N
374740, 1040.9444444444443, N
375007, 1041.6861111111111, N
375268, 1042.411111111111, N
375534, 1043.15, N
375798, 1043.8833333333334, N
376062, 1044.6166666666666, N
376330, 1045.361111111111, N
376587, 1046.075, N
376850, 1046.8055555555557, N
377110, 1047.5277777777778, N
377371, 1048.2527777777777, N
377633, 1048.9805555555556, N
377891, 1049.6972222222223, N
378151, 1050.4194444444445, N
378407, 1051.1305555555555, N
378668, 1051.8555555555556, N
378925, 1052.5694444444443, N
379180, 1053.2777777777778, N
379435, 1053.986111111111, N
379692, 1054.7, N
379945, 1055.4027777777778, N
380199, 1056.1083333333333, N
380455, 1056.8194444444443, N
380706, 1057.5166666666667, N
380955, 1058.2083333333333, N
381213, 1058.925, N
381462, 1059.6166666666666, N
381711, 1060.3083333333334, N
381959, 1060.9972222222223, N
382210, 1061.6944444444443, N
382460, 1062.388888888889, N
382710, 1063.0833333333333, N
382966, 1063.7944444444445, N
383217, 1064.4916666666666, N
383468, 1065.1888888888889, N
383721, 1065.8916666666667, N
383979, 1066.6083333333333, N
384235, 1067.3194444444443, N
384482, 1068.0055555555555, N
384736, 1068.7111111111112, N
384990, 1069.4166666666667, N
385245, 1070.125, N
385500, 1070.8333333333333, N
385760, 1071.5555555555557, N
386013, 1072.2583333333334, N
386264, 1072.9555555555555, N
386529, 1073.6916666666666, N
386784, 1074.4, N
387039, 1075.1083333333333, N
387289, 1075.8027777777777, N
387546, 1076.5166666666667, N
387800, 1077.2222222222222, N
388052, 1077.9222222222222, N
388313, 1078.6472222222221, N
388565, 1079.3472222222222, N
388811, 1080.0305555555556, N
389069, 1080.7472222222223, N
389325, 1081.4583333333333, N
389581, 1082.1694444444445, N
389826, 1082.85, N
390084, 1083.5666666666666, N
390334, 1084.2611111111112, N
390584, 1084.9555555555555, N
390840, 1085.6666666666667, N
391098, 1086.3833333333334, N
391350, 1087.0833333333333, N
391601, 1087.7805555555556, N
391866, 1088.5166666666667, N
392122, 1089.2277777777779, N
392379, 1089.9416666666666, N
392640, 1090.6666666666667, N
392897, 1091.3805555555555, N
393152, 1092.088888888889, N
393410, 1092.8055555555557, N
393672, 1093.5333333333333, N
393925, 1094.236111111111, N
394177, 1094.9361111111111, N
394439, 1095.6638888888888, N
394693, 1096.3694444444445, N
394949, 1097.0805555555555, N
395197, 1097.7694444444444, N
395453, 1098.4805555555556, N
395704, 1099.1777777777777, N
395959, 1099.8861111111112, N
396220, 1100.611111111111, N
396475, 1101.3194444444443, N
396725, 1102.013888888889, N
396983, 1102.7305555555556, N
397241, 1103.4472222222223, N
397496, 1104.1555555555556, N
397743, 1104.8416666666667, N
398003, 1105.5638888888889, N
398252, 1106.2555555555555, N
398503, 1106.9527777777778, N
398756, 1107.6555555555556, N
399013, 1108.3694444444445, N
399263, 1109.0638888888889, N
399512, 1109.7555555555555, N
399778, 1110.4944444444445, N
400028, 1111.1888888888889, N
400283, 1111.8972222222221, N
400540, 1112.611111111111, N
400796, 1113.3222222222223, N
401052, 1114.0333333333333, N
401317, 1114.7694444444444, N
401586, 1115.5166666666667, N
401843, 1116.2305555555556, N
402105, 1116.9583333333333, N
402378, 1117.7166666666667, N
402637, 1118.4361111111111, N
402902, 1119.1722222222222, N
403162, 1119.8944444444444, N
403418, 1120.6055555555556, N
403678, 1121.3277777777778, N
403940, 1122.0555555555557, N
404206, 1122.7944444444445, N
404465, 1123.513888888889, N
404726, 1124.2388888888888, N
404997, 1124.9916666666666, N
405257, 1125.713888888889, N
405519, 1126.4416666666666, N
405781, 1127.1694444444445, N
406042, 1127.8944444444444, N
406299, 1128.6083333333333, N
406567, 1129.3527777777779, N
406829, 1130.0805555555555, N
407087, 1130.7972222222222, N
407347, 1131.5194444444444, N
407613, 1132.2583333333334, N
407872, 1132.9777777777779, N
408131, 1133.6972222222223, N
408397, 1134.4361111111111, N
408653, 1135.1472222222221, N
408913, 1135.8694444444445, N
409179, 1136.6083333333333, N
409444, 1137.3444444444444, N
409708, 1138.0777777777778, N
409970, 1138.8055555555557, N
410241, 1139.5583333333334, N
410500, 1140.2777777777778, N
410762, 1141.0055555555555, N
411021, 1141.725, N
411276, 1142.4333333333334, N
411534, 1143.15, N
411796, 1143.8777777777777, N
412057, 1144.6027777777779, N
412313, 1145.3138888888889, N
412571, 1146.0305555555556, N
412834, 1146.7611111111112, N
413092, 1147.4777777777779, N
413350, 1148.1944444444443, N
413605, 1148.9027777777778, N
413863, 1149.6194444444445, N
414124, 1150.3444444444444, N
414388, 1151.0777777777778, N
414652, 1151.8111111111111, N
414910, 1152.5277777777778, N
415170, 1153.25, N
415436, 1153.9888888888888, N
415695, 1154.7083333333333, N
415954, 1155.4277777777777, N
416207, 1156.1305555555555, N
416462, 1156.838888888889, N
416719, 1157.5527777777777, N
416976, 1158.2666666666667, N
417238, 1158.9944444444445, N
417495, 1159.7083333333333, N
417751, 1160.4194444444445, N
418011, 1161.1416666666667, N
418274, 1161.8722222222223, N
418539, 1162.6083333333333, N
418796, 1163.3222222222223, N
419059, 1164.0527777777777, N
419319, 1164.775, N
419582, 1165.5055555555555, N
419845, 1166.236111111111, N
420105, 1166.9583333333333, N
420363, 1167.675, N
420620, 1168.388888888889, N
420878, 1169.1055555555556, N
421137, 1169.825, N
421391, 1170.5305555555556, N
421651, 1171.2527777777777, N
421909, 1171.9694444444444, N
422169, 1172.6916666666666, N
422430, 1173.4166666666667, N
422696, 1174.1555555555556, N
422956, 1174.8777777777777, N
423212, 1175.588888888889, N
423478, 1176.3277777777778, N
423737, 1177.0472222222222, N
423995, 1177.763888888889, N
424253, 1178.4805555555556, N
424511, 1179.1972222222223, N
424769, 1179.9138888888888, N
425028, 1180.6333333333334, N
425295, 1181.375, N
425553, 1182.0916666666667, N
425813, 1182.8138888888889, N
426079, 1183.5527777777777, N
426340, 1184.2777777777778, N
426602, 1185.0055555555555, N
426862, 1185.7277777777779, N
427127, 1186.463888888889, N
427387, 1187.1861111111111, N
427650, 1187.9166666666667, N
427917, 1188.6583333333333, N
428178, 1189.3833333333334, N
428438, 1190.1055555555556, N
428703, 1190.8416666666667, N
428964, 1191.5666666666666, N
429223, 1192.286111111111, N
429481, 1193.0027777777777, N
429743, 1193.7305555555556, N
430005, 1194.4583333333333, N
430268, 1195.1888888888889, N
430537, 1195.9361111111111, N
430798, 1196.661111111111, N
431056, 1197.3777777777777, N
431325, 1198.125, N
431588, 1198.8555555555556, N
431850, 1199.5833333333333, N
432109, 1200.3027777777777, N
432371, 1201.0305555555556, N
432630, 1201.75, N
432894, 1202.4833333333333, N
433158, 1203.2166666666667, N
433417, 1203.9361111111111, N
433672, 1204.6444444444444, N
433941, 1205.3916666666667, N
434204, 1206.1222222222223, N
434470, 1206.861111111111, N
434732, 1207.588888888889, N
434999, 1208.3305555555555, N
435264, 1209.0666666666666, N
435530, 1209.8055555555557, N
435802, 1210.5611111111111, N
436066, 1211.2944444444445, N
436325, 1212.013888888889, N
436593, 1212.7583333333334, N
436856, 1213.4888888888888, N
437118, 1214.2166666666667, N
437381, 1214.9472222222223, N
437644, 1215.6777777777777, N
437902, 1216.3944444444444, N
438163, 1217.1194444444445, N
438431, 1217.8638888888888, N
438690, 1218.5833333333333, N
438945, 1219.2916666666667, N
439215, 1220.0416666666667, N
439474, 1220.7611111111112, N
439736, 1221.4888888888888, N
439996, 1222.2111111111112, N
440258, 1222.9388888888889, N
440518, 1223.661111111111, N
440776, 1224.3777777777777, N
441043, 1225.1194444444445, N
441299, 1225.8305555555555, N
441558, 1226.55, N
441821, 1227.2805555555556, N
442084, 1228.0111111111112, N
442341, 1228.725, N
442597, 1229.4361111111111, N
442861, 1230.1694444444445, N
443120, 1230.888888888889, N
443385, 1231.625, N
443652, 1232.3666666666666, N
443912, 1233.088888888889, N
444172, 1233.8111111111111, N
444441, 1234.5583333333334, N
444703, 1235.286111111111, N
444964, 1236.0111111111112, N
445220, 1236.7222222222222, N
445481, 1237.4472222222223, N
445739, 1238.1638888888888, N
445999, 1238.8861111111112, N
446263, 1239.6194444444445, N
446518, 1240.3277777777778, N
446772, 1241.0333333333333, N
447036, 1241.7666666666667, N
447293, 1242.4805555555556, N
447553, 1243.2027777777778, N
447807, 1243.9083333333333, N
448069, 1244.6361111111112, N
448328, 1245.3555555555556, N
448589, 1246.0805555555555, N
448859, 1246.8305555555555, N
449115, 1247.5416666666667, N
449373, 1248.2583333333334, N
449637, 1248.9916666666666, N
449900, 1249.7222222222222, N
450161, 1250.4472222222223, N
450416, 1251.1555555555556, N
450683, 1251.8972222222221, N
450941, 1252.6138888888888, N
451205, 1253.3472222222222, N
451474, 1254.0944444444444, N
451738, 1254.8277777777778, N
452002, 1255.5611111111111, N
452273, 1256.3138888888889, N
452541, 1257.0583333333334, N
452810, 1257.8055555555557, N
453072, 1258.5333333333333, N
453340, 1259.2777777777778, N
453600, 1260.0, N
453860, 1260.7222222222222, N
454124, 1261.4555555555555, N
454381, 1262.1694444444445, N
454639, 1262.8861111111112, N
454899, 1263.6083333333333, N
455160, 1264.3333333333333, N
455417, 1265.0472222222222, N
455671, 1265.7527777777777, N
455933, 1266.4805555555556, N
456189, 1267.1916666666666, N
456450, 1267.9166666666667, N
456715, 1268.6527777777778, N
456975, 1269.375, N
457235, 1270.0972222222222, N
457496, 1270.8222222222223, N
457762, 1271.5611111111111, N
458022, 1272.2833333333333, N
458275, 1272.986111111111, N
458538, 1273.7166666666667, N
458794, 1274.4277777777777, N
459055, 1275.1527777777778, N
459316, 1275.8777777777777, N
459575, 1276.5972222222222, N
459833, 1277.3138888888889, N
460090, 1278.0277777777778, N
460357, 1278.7694444444444, N
460612, 1279.4777777777779, N
460871, 1280.1972222222223, N
461126, 1280.9055555555556, N
461384, 1281.6222222222223, N
461643, 1282.3416666666667, N
461904, 1283.0666666666666, N
462165, 1283.7916666666667, N
462421, 1284.5027777777777, N
462677, 1285.213888888889, N
462941, 1285.9472222222223, N
463199, 1286.6638888888888, N
463459, 1287.3861111111112, N
463713, 1288.0916666666667, N
463970, 1288.8055555555557, N
464230, 1289.5277777777778, N
464489, 1290.2472222222223, N
464754, 1290.9833333333333, N
465011, 1291.6972222222223, N
465270, 1292.4166666666667, N
465533, 1293.1472222222221, N
465796, 1293.8777777777777, N
466064, 1294.6222222222223, N
466318, 1295.3277777777778, N
466583, 1296.0638888888889, N
466843, 1296.786111111111, N
467105, 1297.513888888889, N
467371, 1298.2527777777777, N
467632, 1298.9777777777779, N
467890, 1299.6944444444443, N
468149, 1300.4138888888888, N
468410, 1301.138888888889, N
468671, 1301.8638888888888, N
468924, 1302.5666666666666, N
469186, 1303.2944444444445, N
469446, 1304.0166666666667, N
469705, 1304.736111111111, N
469973, 1305.4805555555556, N
470236, 1306.2111111111112, N
470500, 1306.9444444444443, N
470766, 1307.6833333333334, N
471034, 1308.4277777777777, N
471301, 1309.1694444444445, N
471558, 1309.8833333333334, N
471826, 1310.6277777777777, N
472089, 1311.3583333333333, N
472353, 1312.0916666666667, N
472621, 1312.8361111111112, N
472889, 1313.5805555555555, N
473154, 1314.3166666666666, N
473424, 1315.0666666666666, N
473695, 1315.8194444444443, N
473962, 1316.5611111111111, N
474226, 1317.2944444444445, N
474498, 1318.05, N
474768, 1318.8, N
475037, 1319.5472222222222, N
475314, 1320.3166666666666, N
475581, 1321.0583333333334, N
475844, 1321.7888888888888, N
476119, 1322.5527777777777, N
476384, 1323.2888888888888, N
476647, 1324.0194444444444, N
476910, 1324.75, N
477172, 1325.4777777777779, N
477433, 1326.2027777777778, N
477698, 1326.9388888888889, N
477964, 1327.6777777777777, N
478226, 1328.4055555555556, N
478485, 1329.125, N
478759, 1329.8861111111112, N
479029, 1330.6361111111112, N
479290, 1331.361111111111, N
479560, 1332.111111111111, N
479824, 1332.8444444444444, N
480086, 1333.5722222222223, N
480352, 1334.3111111111111, N
480616, 1335.0444444444445, N
480875, 1335.763888888889, N
481132, 1336.4777777777779, N
481401, 1337.225, N
481661, 1337.9472222222223, N
481918, 1338.661111111111, N
482180, 1339.388888888889, N
482437, 1340.1027777777779, N
482694, 1340.8166666666666, N
482956, 1341.5444444444445, N
483221, 1342.2805555555556, N
483483, 1343.0083333333334, N
483737, 1343.713888888889, N
484005, 1344.4583333333333, N
484263, 1345.175, N
484519, 1345.8861111111112, N
484778, 1346.6055555555556, N
485036, 1347.3222222222223, N
485294, 1348.0388888888888, N
485555, 1348.763888888889, N
485822, 1349.5055555555555, N
486079, 1350.2194444444444, N
486337, 1350.9361111111111, N
486608, 1351.6888888888889, N
486872, 1352.4222222222222, N
487135, 1353.1527777777778, N
487400, 1353.888888888889, N
487666, 1354.6277777777777, N
487926, 1355.35, N
488192, 1356.088888888889, N
488457, 1356.825, N
488713, 1357.536111111111, N
488971, 1358.2527777777777, N
489238, 1358.9944444444445, N
489496, 1359.7111111111112, N
489747, 1360.4083333333333, N
490003, 1361.1194444444445, N
490258, 1361.8277777777778, N
490513, 1362.536111111111, N
490768, 1363.2444444444445, N
491035, 1363.986111111111, N
491289, 1364.6916666666666, N
491551, 1365.4194444444445, N
491817, 1366.1583333333333, N
492079, 1366.8861111111112, N
492339, 1367.6083333333333, N
492592, 1368.3111111111111, N
492855, 1369.0416666666667, N
493110, 1369.75, N
493373, 1370.4805555555556, N
493637, 1371.213888888889, N
493896, 1371.9333333333334, N
494153, 1372.6472222222221, N
494420, 1373.388888888889, N
494684, 1374.1222222222223, N
494951, 1374.8638888888888, N
495210, 1375.5833333333333, N
495477, 1376.325, N
495739, 1377.0527777777777, N
496008, 1377.8, N
496279, 1378.5527777777777, N
496540, 1379.2777777777778, N
496800, 1380.0, N
497065, 1380.736111111111, N
497331, 1381.475, N
497591, 1382.1972222222223, N
497848, 1382.911111111111, N
498109, 1383.6361111111112, N
498364, 1384.3444444444444, N
498622, 1385.0611111111111, N
498885, 1385.7916666666667, N
499145, 1386.513888888889, N
499402, 1387.2277777777779, N
499665, 1387.9583333333333, N
499929, 1388.6916666666666, N
500194, 1389.4277777777777, N
500449, 1390.1361111111112, N
500716, 1390.8777777777777, N
500973, 1391.5916666666667, N
501233, 1392.3138888888889, N
501498, 1393.05, N
501760, 1393.7777777777778, N
502025, 1394.513888888889, N
502288, 1395.2444444444445, N
502554, 1395.9833333333333, N
502817, 1396.713888888889, N
503077, 1397.4361111111111, N
503343, 1398.175, N
503602, 1398.8944444444444, N
503863, 1399.6194444444445, N
504131, 1400.3638888888888, N
504393, 1401.0916666666667, N
504657, 1401.825, N
504921, 1402.5583333333334, N
505190, 1403.3055555555557, N
505457, 1404.0472222222222, N
505716, 1404.7666666666667, N
505986, 1405.5166666666667, N
506246, 1406.2388888888888, N
506514, 1406.9833333333333, N
506781, 1407.725, N
507045, 1408.4583333333333, N
507309, 1409.1916666666666, N
507574, 1409.9277777777777, N
507844, 1410.6777777777777, N
508110, 1411.4166666666667, N
508373, 1412.1472222222221, N
508638, 1412.8833333333334, N
508905, 1413.625, N
509173, 1414.3694444444445, N
509443, 1415.1194444444445, N
509710, 1415.861111111111, N
509974, 1416.5944444444444, N
510242, 1417.338888888889, N
510511, 1418.0861111111112, N
510781, 1418.8361111111112, N
511039, 1419.5527777777777, N
511306, 1420.2944444444445, N
511568, 1421.0222222222221, N
511832, 1421.7555555555555, N
512100, 1422.5, N
512361, 1423.225, N
512625, 1423.9583333333333, N
512890, 1424.6944444444443, N
513156, 1425.4333333333334, N
513423, 1426.175, N
513680, 1426.888888888889, N
513943, 1427.6194444444445, N
514203, 1428.3416666666667, N
514465, 1429.0694444444443, N
514727, 1429.7972222222222, N
514986, 1430.5166666666667, N
515247, 1431.2416666666666, N
515508, 1431.9666666666667, N
515771, 1432.6972222222223, N
516033, 1433.425, N
516286, 1434.1277777777777, N
516547, 1434.8527777777779, N
516806, 1435.5722222222223, N
517065, 1436.2916666666667, N
517329, 1437.025, N
517591, 1437.7527777777777, N
517853, 1438.4805555555556, N
518119, 1439.2194444444444, N
518384, 1439.9555555555555, N
518650, 1440.6944444444443, N
518907, 1441.4083333333333, N
519169, 1442.1361111111112, N
519434, 1442.8722222222223, N
519692, 1443.588888888889, N
519957, 1444.325, N
520218, 1445.05, N
520475, 1445.763888888889, N
520740, 1446.5, N
520999, 1447.2194444444444, N
521264, 1447.9555555555555, N
521513, 1448.6472222222221, N
521775, 1449.375, N
522033, 1450.0916666666667, N
522295, 1450.8194444444443, N
522558, 1451.55, N
522818, 1452.2722222222221, N
523077, 1452.9916666666666, N
523337, 1453.713888888889, N
523605, 1454.4583333333333, N
523867, 1455.1861111111111, N
524121, 1455.8916666666667, N
524385, 1456.625, N
524647, 1457.3527777777779, N
524909, 1458.0805555555555, N
525179, 1458.8305555555555, N
525446, 1459.5722222222223, N
525710, 1460.3055555555557, N
525976, 1461.0444444444445, N
526250, 1461.8055555555557, N
526522, 1462.5611111111111, N
526781, 1463.2805555555556, N
527055, 1464.0416666666667, N
527319, 1464.775, N
527586, 1465.5166666666667, N
527857, 1466.2694444444444, N
528122, 1467.0055555555555, N
528383, 1467.7305555555556, N
528650, 1468.4722222222222, N
528916, 1469.2111111111112, N
529179, 1469.9416666666666, N
529435, 1470.6527777777778, N
529700, 1471.388888888889, N
529963, 1472.1194444444445, N
530221, 1472.8361111111112, N
530492, 1473.588888888889, N
530755, 1474.3194444444443, N
531017, 1475.0472222222222, N
531287, 1475.7972222222222, N
531554, 1476.5388888888888, N
531824, 1477.2888888888888, N
532082, 1478.0055555555555, N
532352, 1478.7555555555555, N
532616, 1479.4888888888888, N
532879, 1480.2194444444444, N
533149, 1480.9694444444444, N
533414, 1481.7055555555555, N
533677, 1482.4361111111111, N
533947, 1483.1861111111111, N
534217, 1483.9361111111111, N
534482, 1484.6722222222222, N
534745, 1485.4027777777778, N
535017, 1486.1583333333333, N
535283, 1486.8972222222221, N
535550, 1487.638888888889, N
535824, 1488.4, N
536087, 1489.1305555555555, N
536351, 1489.8638888888888, N
536620, 1490.611111111111, N
536883, 1491.3416666666667, N
537146, 1492.0722222222223, N
537401, 1492.7805555555556, N
537666, 1493.5166666666667, N
537923, 1494.2305555555556, N
538186, 1494.9611111111112, N
538454, 1495.7055555555555, N
538711, 1496.4194444444445, N
538974, 1497.15, N
539242, 1497.8944444444444, N
539510, 1498.638888888889, N
539778, 1499.3833333333334, N
540038, 1500.1055555555556, N
540306, 1500.85, N
540567, 1501.575, N
540833, 1502.3138888888889, N
541106, 1503.0722222222223, N
541366, 1503.7944444444445, N
541629, 1504.525, N
541903, 1505.286111111111, N
542171, 1506.0305555555556, N
542442, 1506.7833333333333, N
542710, 1507.5277777777778, N
542977, 1508.2694444444444, N
543246, 1509.0166666666667, N
543523, 1509.786111111111, N
543802, 1510.5611111111111, N
544065, 1511.2916666666667, N
544332, 1512.0333333333333, N
544608, 1512.8, N
544874, 1513.5388888888888, N
545143, 1514.286111111111, N
545412, 1515.0333333333333, N
545672, 1515.7555555555555, N
545937, 1516.4916666666666, N
546203, 1517.2305555555556, N
546468, 1517.9666666666667, N
546732, 1518.7, N
546993, 1519.425, N
547267, 1520.1861111111111, N
547531, 1520.9194444444445, N
547796, 1521.6555555555556, N
548066, 1522.4055555555556, N
548327, 1523.1305555555555, N
548593, 1523.8694444444445, N
548864, 1524.6222222222223, N
549130, 1525.361111111111, N
549395, 1526.0972222222222, N
549664, 1526.8444444444444, N
549933, 1527.5916666666667, N
550198, 1528.3277777777778, N
550460, 1529.0555555555557, N
550727, 1529.7972222222222, N
550991, 1530.5305555555556, N
551259, 1531.275, N
551531, 1532.0305555555556, N
551796, 1532.7666666666667, N
552064, 1533.5111111111112, N
552333, 1534.2583333333334, N
552603, 1535.0083333333334, N
552869, 1535.7472222222223, N
553124, 1536.4555555555555, N
553389, 1537.1916666666666, N
553646, 1537.9055555555556, N
553910, 1538.638888888889, N
554174, 1539.3722222222223, N
554432, 1540.088888888889, N
554691, 1540.8083333333334, N
554958, 1541.55, N
555222, 1542.2833333333333, N
555489, 1543.025, N
555749, 1543.7472222222223, N
556014, 1544.4833333333333, N
556277, 1545.213888888889, N
556545, 1545.9583333333333, N
556814, 1546.7055555555555, N
557076, 1547.4333333333334, N
557342, 1548.1722222222222, N
557607, 1548.9083333333333, N
557873, 1549.6472222222221, N
558140, 1550.388888888889, N
558398, 1551.1055555555556, N
558662, 1551.838888888889, N
558921, 1552.5583333333334, N
559185, 1553.2916666666667, N
559452, 1554.0333333333333, N
559713, 1554.7583333333334, N
559975, 1555.486111111111, N
560243, 1556.2305555555556, N
560506, 1556.9611111111112, N
560772, 1557.7, N
561032, 1558.4222222222222, N
561296, 1559.1555555555556, N
561557, 1559.8805555555555, N
561819, 1560.6083333333333, N
562084, 1561.3444444444444, N
562344, 1562.0666666666666, N
562604, 1562.7888888888888, N
562867, 1563.5194444444444, N
563127, 1564.2416666666666, N
563389, 1564.9694444444444, N
563645, 1565.6805555555557, N
563906, 1566.4055555555556, N
564168, 1567.1333333333334, N
564427, 1567.8527777777779, N
564691, 1568.5861111111112, N
564950, 1569.3055555555557, N
565207, 1570.0194444444444, N
565470, 1570.75, N
565728, 1571.4666666666667, N
565991, 1572.1972222222223, N
566241, 1572.8916666666667, N
566504, 1573.6222222222223, N
566760, 1574.3333333333333, N
567018, 1575.05, N
567277, 1575.7694444444444, N
567534, 1576.4833333333333, N
567792, 1577.2, N
568048, 1577.911111111111, N
568312, 1578.6444444444444, N
568571, 1579.3638888888888, N
568825, 1580.0694444444443, N
569084, 1580.7888888888888, N
569344, 1581.5111111111112, N
569602, 1582.2277777777779, N
569865, 1582.9583333333333, N
570127, 1583.6861111111111, N
570387, 1584.4083333333333, N
570642, 1585.1166666666666, N
570909, 1585.8583333333333, N
571170, 1586.5833333333333, N
571426, 1587.2944444444445, N
571684, 1588.0111111111112, N
571941, 1588.725, N
572200, 1589.4444444444443, N
572454, 1590.15, N
572719, 1590.8861111111112, N
572972, 1591.588888888889, N
573227, 1592.2972222222222, N
573489, 1593.025, N
573748, 1593.7444444444445, N
574007, 1594.463888888889, N
574262, 1595.1722222222222, N
574522, 1595.8944444444444, N
574779, 1596.6083333333333, N
575038, 1597.3277777777778, N
575302, 1598.0611111111111, N
575564, 1598.7888888888888, N
575819, 1599.4972222222223, N
576084, 1600.2333333333333, N
576343, 1600.9527777777778, N
576606, 1601.6833333333334, N
576857, 1602.3805555555555, N
577122, 1603.1166666666666, N
577379, 1603.8305555555555, N
577635, 1604.5416666666667, N
577899, 1605.275, N
578154, 1605.9833333333333, N
578411, 1606.6972222222223, N
578669, 1607.4138888888888, N
578931, 1608.1416666666667, N
579188, 1608.8555555555556, N
579441, 1609.5583333333334, N
579701, 1610.2805555555556, N
579959, 1610.9972222222223, N
580213, 1611.7027777777778, N
580476, 1612.4333333333334, N
580732, 1613.1444444444444, N
580990, 1613.861111111111, N
581249, 1614.5805555555555, N
581515, 1615.3194444444443, N
581775, 1616.0416666666667, N
582028, 1616.7444444444445, N
582295, 1617.486111111111, N
582555, 1618.2083333333333, N
582817, 1618.9361111111111, N
583082, 1619.6722222222222, N
583346, 1620.4055555555556, N
583606, 1621.1277777777777, N
583870, 1621.861111111111, N
584138, 1622.6055555555556, N
584396, 1623.3222222222223, N
584651, 1624.0305555555556, N
584911, 1624.7527777777777, N
585169, 1625.4694444444444, N
585422, 1626.1722222222222, N
585685, 1626.9027777777778, N
585940, 1627.611111111111, N
586195, 1628.3194444444443, N
586453, 1629.036111111111, N
586718, 1629.7722222222221, N
586979, 1630.4972222222223, N
587233, 1631.2027777777778, N
587500, 1631.9444444444443, N
587757, 1632.6583333333333, N
588018, 1633.3833333333334, N
588284, 1634.1222222222223, N
588547, 1634.8527777777779, N
588806, 1635.5722222222223, N
589069, 1636.3027777777777, N
589338, 1637.05, N
589600, 1637.7777777777778, N
589857, 1638.4916666666666, N
590124, 1639.2333333333333, N
590384, 1639.9555555555555, N
590644, 1640.6777777777777, N
590911, 1641.4194444444445, N
591173, 1642.1472222222221, N
591433, 1642.8694444444445, N
591696, 1643.6, N
591963, 1644.3416666666667, N
592219, 1645.0527777777777, N
592473, 1645.7583333333334, N
592735, 1646.486111111111, N
592990, 1647.1944444444443, N
593244, 1647.9, N
593505, 1648.625, N
593762, 1649.338888888889, N
594020, 1650.0555555555557, N
594279, 1650.775, N
594545, 1651.513888888889, N
594806, 1652.2388888888888, N
595059, 1652.9416666666666, N
595326, 1653.6833333333334, N
595583, 1654.3972222222221, N
595846, 1655.1277777777777, N
596116, 1655.8777777777777, N
596380, 1656.611111111111, N
596642, 1657.338888888889, N
596902, 1658.0611111111111, N
597173, 1658.8138888888889, N
597430, 1659.5277777777778, N
597688, 1660.2444444444445, N
597950, 1660.9722222222222, N
598205, 1661.6805555555557, N
598467, 1662.4083333333333, N
598731, 1663.1416666666667, N
598995, 1663.875, N
599253, 1664.5916666666667, N
599516, 1665.3222222222223, N
599787, 1666.075, N
600048, 1666.8, N
600309, 1667.525, N
600572, 1668.2555555555555, N
600830, 1668.9722222222222, N
601091, 1669.6972222222223, N
601354, 1670.4277777777777, N
601616, 1671.1555555555556, N
601871, 1671.8638888888888, N
602129, 1672.5805555555555, N
602395, 1673.3194444444443, N
602654, 1674.0388888888888, N
602913, 1674.7583333333334, N
603174, 1675.4833333333333, N
603432, 1676.2, N
603692, 1676.9222222222222, N
603957, 1677.6583333333333, N
604221, 1678.3916666666667, N
604481, 1679.1138888888888, N
604739, 1679.8305555555555, N
605007, 1680.575, N
605265, 1681.2916666666667, N
605525, 1682.013888888889, N
605783, 1682.7305555555556, N
606037, 1683.4361111111111, N
606296, 1684.1555555555556, N
606553, 1684.8694444444445, N
606815, 1685.5972222222222, N
607069, 1686.3027777777777, N
607328, 1687.0222222222221, N
607589, 1687.7472222222223, N
607848, 1688.4666666666667, N
608109, 1689.1916666666666, N
608365, 1689.9027777777778, N
608625, 1690.625, N
608883, 1691.3416666666667, N
609144, 1692.0666666666666, N
609406, 1692.7944444444445, N
609663, 1693.5083333333334, N
609919, 1694.2194444444444, N
610178, 1694.9388888888889, N
610434, 1695.65, N
610691, 1696.3638888888888, N
610938, 1697.05, N
611196, 1697.7666666666667, N
611449, 1698.4694444444444, N
611708, 1699.1888888888889, N
611968, 1699.911111111111, N
612226, 1700.6277777777777, N
612487, 1701.3527777777779, N
612746, 1702.0722222222223, N
613011, 1702.8083333333334, N
613274, 1703.5388888888888, N
613529, 1704.2472222222223, N
613789, 1704.9694444444444, N
614047, 1705.6861111111111, N
614306, 1706.4055555555556, N
614568, 1707.1333333333334, N
614828, 1707.8555555555556, N
615086, 1708.5722222222223, N
615341, 1709.2805555555556, N
615608, 1710.0222222222221, N
615867, 1710.7416666666666, N
616127, 1711.463888888889, N
616387, 1712.1861111111111, N
616644, 1712.9, N
616907, 1713.6305555555555, N
617167, 1714.3527777777779, N
617434, 1715.0944444444444, N
617693, 1715.8138888888889, N
617949, 1716.525, N
618217, 1717.2694444444444, N
618477, 1717.9916666666666, N
618738, 1718.7166666666667, N
618997, 1719.4361111111111, N
619258, 1720.161111111111, N
619518, 1720.8833333333334, N
619783, 1721.6194444444445, N
620050, 1722.361111111111, N
620314, 1723.0944444444444, N
620576, 1723.8222222222223, N
620849, 1724.5805555555555, N
621118, 1725.3277777777778, N
621384, 1726.0666666666666, N
621654, 1726.8166666666666, N
621919, 1727.5527777777777, N
622184, 1728.2888888888888, N
622451, 1729.0305555555556, N
622719, 1729.775, N
622984, 1730.5111111111112, N
623247, 1731.2416666666666, N
623519, 1731.9972222222223, N
623786, 1732.7388888888888, N
624042, 1733.45, N
624313, 1734.2027777777778, N
624576, 1734.9333333333334, N
624838, 1735.661111111111, N
625105, 1736.4027777777778, N
625367, 1737.1305555555555, N
625632, 1737.8666666666666, N
625893, 1738.5916666666667, N
626162, 1739.338888888889, N
626425, 1740.0694444444443, N
626676, 1740.7666666666667, N
626943, 1741.5083333333334, N
627198, 1742.2166666666667, N
627458, 1742.9388888888889, N
627717, 1743.6583333333333, N
627977, 1744.3805555555555, N
628231, 1745.0861111111112, N
628489, 1745.8027777777777, N
628751, 1746.5305555555556, N
629012, 1747.2555555555555, N
629265, 1747.9583333333333, N
629529, 1748.6916666666666, N
629789, 1749.4138888888888, N
630048, 1750.1333333333334, N
630316, 1750.8777777777777, N
630578, 1751.6055555555556, N
630840, 1752.3333333333333, N
631099, 1753.0527777777777, N
631367, 1753.7972222222222, N
631634, 1754.5388888888888, N
631887, 1755.2416666666666, N
632155, 1755.986111111111, N
632414, 1756.7055555555555, N
632673, 1757.425, N
632938, 1758.161111111111, N
633201, 1758.8916666666667, N
633459, 1759.6083333333333, N
633719, 1760.3305555555555, N
633986, 1761.0722222222223, N
634248, 1761.8, N
634503, 1762.5083333333334, N
634770, 1763.25, N
635030, 1763.9722222222222, N
635292, 1764.7, N
635558, 1765.4388888888889, N
635822, 1766.1722222222222, N
636082, 1766.8944444444444, N
636343, 1767.6194444444445, N
636612, 1768.3666666666666, N
636872, 1769.088888888889, N
637129, 1769.8027777777777, N
637394, 1770.5388888888888, N
637656, 1771.2666666666667, N
637916, 1771.9888888888888, N
638182, 1772.7277777777779, N
638448, 1773.4666666666667, N
638706, 1774.1833333333334, N
638969, 1774.9138888888888, N
639237, 1775.6583333333333, N
639497, 1776.3805555555555, N
639751, 1777.0861111111112, N
640015, 1777.8194444444443, N
640274, 1778.5388888888888, N
640530, 1779.25, N
640793, 1779.9805555555556, N
641050, 1780.6944444444443, N
641306, 1781.4055555555556, N
641560, 1782.111111111111, N
641828, 1782.8555555555556, N
642083, 1783.5638888888889, N
642339, 1784.275, N
642598, 1784.9944444444445, N
642855, 1785.7083333333333, N
643113, 1786.425, N
643374, 1787.15, N
643640, 1787.888888888889, N
643897, 1788.6027777777779, N
644156, 1789.3222222222223, N
644425, 1790.0694444444443, N
644684, 1790.7888888888888, N
644942, 1791.5055555555555, N
645200, 1792.2222222222222, N
645457, 1792.9361111111111, N
645713, 1793.6472222222221, N
645974, 1794.3722222222223, N
646239, 1795.1083333333333, N
646495, 1795.8194444444443, N
646751, 1796.5305555555556, N
647018, 1797.2722222222221, N
647277, 1797.9916666666666, N
647540, 1798.7222222222222, N
647798, 1799.4388888888889, N
648059, 1800.1638888888888, N
648320, 1800.888888888889, N
648582, 1801.6166666666666, N
648848, 1802.3555555555556, N
649105, 1803.0694444444443, N
649361, 1803.7805555555556, N
649626, 1804.5166666666667, N
649883, 1805.2305555555556, N
