22, 0.06111111111111111, +
170, 0.4722222222222222, N
583, 1.6194444444444445, N
966, 2.683333333333333, N
1326, 3.683333333333333, N
1704, 4.733333333333333, N
2094, 5.816666666666666, N
2511, 6.975, N
2872, 7.977777777777778, N
3251, 9.030555555555555, N
3646, 10.127777777777778, N
4016, 11.155555555555555, N
4351, 12.08611111111111, N
4699, 13.052777777777777, N
5085, 14.125, N
5453, 15.147222222222222, N
5774, 16.038888888888888, N
6153, 17.091666666666665, N
6585, 18.291666666666668, N
6978, 19.383333333333333, N
7329, 20.358333333333334, N
7730, 21.47222222222222, N
8117, 22.54722222222222, N
8451, 23.475, N
8644, 24.011111111111113, a
9047, 25.130555555555556, N
9452, 26.255555555555556, N
9829, 27.302777777777777, N
10197, 28.325, N
10577, 29.380555555555556, N
10989, 30.525, N
11384, 31.622222222222224, N
11742, 32.61666666666667, N
12119, 33.66388888888889, N
12495, 34.708333333333336, N
12873, 35.75833333333333, N
13239, 36.775, N
13609, 37.80277777777778, N
13981, 38.83611111111111, N
14365, 39.90277777777778, N
14699, 40.830555555555556, N
15051, 41.80833333333333, N
15461, 42.94722222222222, N
15835, 43.986111111111114, N
16164, 44.9, N
16522, 45.894444444444446, N
16901, 46.94722222222222, N
17290, 48.02777777777778, N
17647, 49.019444444444446, N
18014, 50.03888888888889, N
18394, 51.09444444444444, N
18773, 52.147222222222226, N
19113, 53.09166666666667, N
19512, 54.2, N
19922, 55.33888888888889, N
20313, 56.425, N
20666, 57.40555555555556, N
21026, 58.40555555555556, N
21388, 59.41111111111111, N
21772, 60.477777777777774, N
22140, 61.5, N
22498, 62.49444444444445, N
22902, 63.61666666666667, N
23258, 64.60555555555555, N
23625, 65.625, N
24034, 66.7611111111111, N
24441, 67.89166666666667, N
24792, 68.86666666666666, N
25133, 69.81388888888888, N
25516, 70.87777777777778, N
25897, 71.93611111111112, N
26255, 72.93055555555556, N
26638, 73.99444444444444, N
27028, 75.07777777777778, N
27395, 76.09722222222223, N
27720, 77.0, N
28121, 78.1138888888889, N
28527, 79.24166666666666, N
28914, 80.31666666666666, N
29297, 81.38055555555556, N
29681, 82.44722222222222, N
30050, 83.47222222222223, N
30415, 84.48611111111111, N
30779, 85.49722222222222, N
31136, 86.4888888888889, N
31506, 87.51666666666667, N
31860, 88.5, N
32225, 89.51388888888889, N
32616, 90.6, N
33002, 91.67222222222222, N
33343, 92.61944444444444, N
33708, 93.63333333333334, N
34091, 94.69722222222222, N
34481, 95.78055555555555, N
34860, 96.83333333333333, N
35231, 97.8638888888889, N
35627, 98.96388888888889, N
36008, 100.02222222222223, N
36340, 100.94444444444444, N
36707, 101.96388888888889, N
37113, 103.09166666666667, N
37504, 104.17777777777778, N
37856, 105.15555555555555, N
38213, 106.14722222222223, N
38571, 107.14166666666667, N
38963, 108.23055555555555, N
39327, 109.24166666666666, N
39687, 110.24166666666666, N
40085, 111.34722222222223, N
40460, 112.38888888888889, N
40797, 113.325, N
41191, 114.41944444444445, N
41588, 115.52222222222223, N
41944, 116.5111111111111, N
42287, 117.46388888888889, N
42673, 118.53611111111111, N
43021, 119.50277777777778, N
43392, 120.53333333333333, N
43757, 121.54722222222222, N
44113, 122.53611111111111, N
44471, 123.53055555555555, N
44799, 124.44166666666666, N
45151, 125.41944444444445, N
45551, 126.53055555555555, N
45970, 127.69444444444444, N
46333, 128.70277777777778, N
46702, 129.7277777777778, N
47081, 130.78055555555557, N
47471, 131.86388888888888, N
47841, 132.89166666666668, N
48213, 133.925, N
48609, 135.025, N
48990, 136.08333333333334, N
49319, 136.99722222222223, N
49695, 138.04166666666666, N
50106, 139.18333333333334, N
50492, 140.25555555555556, N
50843, 141.23055555555555, N
51194, 142.20555555555555, N
51544, 143.17777777777778, N
51938, 144.2722222222222, N
52301, 145.28055555555557, N
52678, 146.32777777777778, N
53082, 147.45, N
53471, 148.53055555555557, N
53851, 149.5861111111111, N
54258, 150.71666666666667, N
54662, 151.8388888888889, N
55019, 152.83055555555555, N
55397, 153.88055555555556, N
55768, 154.9111111111111, N
56185, 156.06944444444446, N
56565, 157.125, N
56937, 158.15833333333333, N
57314, 159.20555555555555, N
57687, 160.24166666666667, N
58005, 161.125, N
58380, 162.16666666666666, N
58791, 163.30833333333334, N
59170, 164.36111111111111, N
59515, 165.31944444444446, N
59873, 166.3138888888889, N
60236, 167.32222222222222, N
60599, 168.33055555555555, N
60930, 169.25, N
61303, 170.2861111111111, N
61678, 171.32777777777778, N
62041, 172.3361111111111, N
62360, 173.22222222222223, N
62772, 174.36666666666667, N
63181, 175.50277777777777, N
63552, 176.53333333333333, N
63900, 177.5, N
64257, 178.49166666666667, N
64638, 179.55, N
65042, 180.67222222222222, N
65417, 181.7138888888889, N
65790, 182.75, N
66176, 183.82222222222222, N
66549, 184.85833333333332, N
66883, 185.7861111111111, N
67218, 186.71666666666667, N
67590, 187.75, N
67998, 188.88333333333333, N
68312, 189.75555555555556, N
68594, 190.5388888888889, N
68881, 191.3361111111111, N
69218, 192.2722222222222, N
69535, 193.15277777777777, N
69866, 194.07222222222222, N
70319, 195.33055555555555, N
70770, 196.58333333333334, N
71166, 197.68333333333334, N
71622, 198.95, N
72046, 200.12777777777777, N
72474, 201.31666666666666, N
72867, 202.40833333333333, N
73253, 203.48055555555555, N
73673, 204.6472222222222, N
74105, 205.84722222222223, N
74494, 206.92777777777778, N
74845, 207.90277777777777, N
75216, 208.93333333333334, N
75634, 210.09444444444443, N
76040, 211.22222222222223, N
76396, 212.2111111111111, N
76785, 213.29166666666666, N
77165, 214.34722222222223, N
77523, 215.34166666666667, N
77872, 216.3111111111111, N
78227, 217.29722222222222, N
78597, 218.325, N
78972, 219.36666666666667, N
79342, 220.39444444444445, N
79680, 221.33333333333334, N
80070, 222.41666666666666, N
80482, 223.5611111111111, N
80864, 224.62222222222223, N
81178, 225.49444444444444, N
81493, 226.36944444444444, N
81849, 227.35833333333332, N
82267, 228.51944444444445, N
82657, 229.6027777777778, N
83035, 230.65277777777777, N
83432, 231.75555555555556, N
83805, 232.79166666666666, N
84156, 233.76666666666668, N
84535, 234.81944444444446, N
84911, 235.86388888888888, N
85288, 236.9111111111111, N
85630, 237.86111111111111, N
85984, 238.84444444444443, N
86375, 239.93055555555554, N
86797, 241.1027777777778, N
87157, 242.1027777777778, N
87503, 243.0638888888889, N
87856, 244.04444444444445, N
88180, 244.94444444444446, N
88560, 246.0, N
88980, 247.16666666666666, N
89396, 248.32222222222222, N
89757, 249.325, N
90138, 250.38333333333333, N
90523, 251.45277777777778, N
90923, 252.5638888888889, N
91275, 253.54166666666666, N
91633, 254.5361111111111, N
92032, 255.64444444444445, N
92412, 256.7, N
92758, 257.6611111111111, N
93148, 258.74444444444447, N
93566, 259.90555555555557, N
93953, 260.98055555555555, N
94317, 261.9916666666667, N
94687, 263.01944444444445, N
95084, 264.1222222222222, N
95481, 265.225, N
95839, 266.21944444444443, N
96219, 267.275, N
96602, 268.3388888888889, N
96984, 269.4, N
97361, 270.4472222222222, N
97723, 271.4527777777778, N
98087, 272.4638888888889, N
98459, 273.4972222222222, N
98798, 274.43888888888887, N
99147, 275.40833333333336, N
99580, 276.6111111111111, N
99985, 277.7361111111111, N
100354, 278.7611111111111, N
100740, 279.8333333333333, N
101130, 280.9166666666667, N
101510, 281.97222222222223, N
101852, 282.9222222222222, N
102200, 283.8888888888889, N
102562, 284.89444444444445, N
102928, 285.9111111111111, N
103251, 286.80833333333334, N
103594, 287.7611111111111, N
104013, 288.925, N
104416, 290.0444444444444, N
104796, 291.1, N
105171, 292.14166666666665, N
105550, 293.19444444444446, N
105950, 294.30555555555554, N
106313, 295.31388888888887, N
106671, 296.30833333333334, N
107061, 297.39166666666665, N
107437, 298.43611111111113, N
107759, 299.3305555555556, N
108125, 300.34722222222223, N
108535, 301.4861111111111, N
108932, 302.5888888888889, N
109282, 303.56111111111113, N
109641, 304.55833333333334, N
110023, 305.61944444444447, N
110425, 306.7361111111111, N
110796, 307.76666666666665, N
111118, 308.6611111111111, N
111472, 309.64444444444445, N
111826, 310.6277777777778, N
112147, 311.51944444444445, N
112550, 312.6388888888889, N
112972, 313.81111111111113, N
113364, 314.9, N
113717, 315.88055555555553, N
114085, 316.90277777777777, N
114473, 317.98055555555555, N
114847, 319.01944444444445, N
115217, 320.0472222222222, N
115596, 321.1, N
115970, 322.1388888888889, N
116303, 323.06388888888887, N
116681, 324.1138888888889, N
117062, 325.1722222222222, N
117434, 326.2055555555556, N
117786, 327.18333333333334, N
118144, 328.1777777777778, N
118513, 329.2027777777778, N
118923, 330.34166666666664, N
119304, 331.4, N
119667, 332.40833333333336, N
120060, 333.5, N
120451, 334.5861111111111, N
120793, 335.5361111111111, N
121146, 336.51666666666665, N
121536, 337.6, N
121946, 338.7388888888889, N
122321, 339.78055555555557, N
122715, 340.875, N
123126, 342.01666666666665, N
123550, 343.19444444444446, N
123924, 344.23333333333335, N
124308, 345.3, N
124695, 346.375, N
125080, 347.44444444444446, N
125471, 348.53055555555557, N
125868, 349.6333333333333, N
126255, 350.7083333333333, N
126643, 351.7861111111111, N
126997, 352.76944444444445, N
127360, 353.77777777777777, N
127790, 354.97222222222223, N
128171, 356.03055555555557, N
128506, 356.9611111111111, N
128854, 357.9277777777778, N
129217, 358.93611111111113, N
129601, 360.0027777777778, N
129957, 360.9916666666667, N
130329, 362.025, N
130706, 363.0722222222222, N
131076, 364.1, N
131396, 364.9888888888889, N
131767, 366.01944444444445, N
132157, 367.10277777777776, N
132521, 368.1138888888889, N
132881, 369.1138888888889, N
133234, 370.09444444444443, N
133617, 371.15833333333336, N
134027, 372.2972222222222, N
134394, 373.31666666666666, N
134740, 374.27777777777777, N
135122, 375.3388888888889, N
135522, 376.45, N
135842, 377.3388888888889, N
136187, 378.2972222222222, N
136585, 379.40277777777777, N
136994, 380.5388888888889, N
137368, 381.5777777777778, N
137752, 382.64444444444445, N
138144, 383.73333333333335, N
138534, 384.81666666666666, N
138895, 385.81944444444446, N
139274, 386.8722222222222, N
139660, 387.94444444444446, N
140006, 388.90555555555557, N
140365, 389.90277777777777, N
140743, 390.9527777777778, N
141133, 392.0361111111111, N
141519, 393.10833333333335, N
141875, 394.09722222222223, N
142053, 394.59166666666664, a
142409, 395.5805555555556, N
142784, 396.6222222222222, N
143135, 397.59722222222223, N
143453, 398.48055555555555, N
143812, 399.47777777777776, N
144210, 400.5833333333333, N
144590, 401.6388888888889, N
145005, 402.7916666666667, N
145418, 403.93888888888887, N
145808, 405.02222222222224, N
146166, 406.01666666666665, N
146528, 407.02222222222224, N
146714, 407.5388888888889, a
147133, 408.7027777777778, N
147503, 409.73055555555555, N
147879, 410.775, N
148277, 411.88055555555553, N
148640, 412.8888888888889, N
148986, 413.85, N
149375, 414.93055555555554, N
149786, 416.0722222222222, N
150158, 417.10555555555555, N
150508, 418.0777777777778, N
150881, 419.1138888888889, N
151296, 420.26666666666665, N
151688, 421.35555555555555, N
152032, 422.31111111111113, N
152404, 423.34444444444443, N
152768, 424.35555555555555, N
153126, 425.35, N
153502, 426.39444444444445, N
153881, 427.4472222222222, N
154259, 428.4972222222222, N
154643, 429.56388888888887, N
154987, 430.51944444444445, N
155327, 431.4638888888889, N
155740, 432.6111111111111, N
156141, 433.725, N
156485, 434.68055555555554, N
156859, 435.71944444444443, N
157238, 436.77222222222224, N
157611, 437.80833333333334, N
158010, 438.9166666666667, N
158422, 440.06111111111113, N
158805, 441.125, N
159127, 442.01944444444445, N
159489, 443.025, N
159911, 444.1972222222222, N
160320, 445.3333333333333, N
160676, 446.3222222222222, N
161061, 447.39166666666665, N
161433, 448.425, N
161810, 449.47222222222223, N
162193, 450.5361111111111, N
162586, 451.6277777777778, N
162968, 452.68888888888887, N
163338, 453.71666666666664, N
163679, 454.6638888888889, N
164034, 455.65, N
164443, 456.7861111111111, N
164835, 457.875, N
165185, 458.84722222222223, N
165544, 459.84444444444443, N
165926, 460.90555555555557, N
166336, 462.0444444444444, N
166697, 463.0472222222222, N
167060, 464.05555555555554, N
167443, 465.11944444444447, N
167820, 466.1666666666667, N
168142, 467.06111111111113, N
168534, 468.15, N
168943, 469.2861111111111, N
169314, 470.31666666666666, N
169667, 471.2972222222222, N
170031, 472.30833333333334, N
170381, 473.28055555555557, N
170758, 474.3277777777778, N
171118, 475.3277777777778, N
171476, 476.3222222222222, N
171847, 477.35277777777776, N
172225, 478.40277777777777, N
172573, 479.36944444444447, N
172957, 480.43611111111113, N
173335, 481.4861111111111, N
173710, 482.52777777777777, N
174040, 483.44444444444446, N
174386, 484.40555555555557, N
174744, 485.4, N
175141, 486.5027777777778, N
175508, 487.52222222222224, N
175874, 488.5388888888889, N
176264, 489.6222222222222, N
176625, 490.625, N
176937, 491.4916666666667, N
177313, 492.5361111111111, N
177714, 493.65, N
178101, 494.725, N
178442, 495.6722222222222, N
178800, 496.6666666666667, N
179181, 497.725, N
179578, 498.8277777777778, N
179940, 499.8333333333333, N
180306, 500.85, N
180669, 501.85833333333335, N
181020, 502.8333333333333, N
181373, 503.81388888888887, N
181738, 504.8277777777778, N
182113, 505.86944444444447, N
182480, 506.8888888888889, N
182839, 507.8861111111111, N
183021, 508.39166666666665, a
183387, 509.40833333333336, N
183800, 510.55555555555554, N
184193, 511.64722222222224, N
184548, 512.6333333333333, N
184915, 513.6527777777778, N
185293, 514.7027777777778, N
185643, 515.675, N
185980, 516.6111111111111, N
186330, 517.5833333333334, N
186717, 518.6583333333333, N
187059, 519.6083333333333, N
187401, 520.5583333333333, N
187773, 521.5916666666667, N
188205, 522.7916666666666, N
188572, 523.8111111111111, N
188933, 524.8138888888889, N
189318, 525.8833333333333, N
189685, 526.9027777777778, N
190050, 527.9166666666666, N
190420, 528.9444444444445, N
190804, 530.0111111111111, N
191175, 531.0416666666666, N
191507, 531.9638888888888, N
191847, 532.9083333333333, N
192236, 533.9888888888889, N
192633, 535.0916666666667, N
192972, 536.0333333333333, N
193328, 537.0222222222222, N
193686, 538.0166666666667, N
194044, 539.0111111111111, N
194423, 540.0638888888889, N
194794, 541.0944444444444, N
195178, 542.1611111111112, N
195561, 543.225, N
195924, 544.2333333333333, N
196274, 545.2055555555555, N
196700, 546.3888888888889, N
197098, 547.4944444444444, N
197424, 548.4, N
197795, 549.4305555555555, N
198180, 550.5, N
198546, 551.5166666666667, N
198938, 552.6055555555556, N
199343, 553.7305555555556, N
199719, 554.775, N
200052, 555.7, N
200376, 556.6, N
200706, 557.5166666666667, N
201128, 558.6888888888889, N
201504, 559.7333333333333, N
201899, 560.8305555555555, N
202290, 561.9166666666666, N
202650, 562.9166666666666, N
203005, 563.9027777777778, N
203395, 564.9861111111111, N
203778, 566.05, N
204159, 567.1083333333333, N
204521, 568.1138888888889, N
204868, 569.0777777777778, N
205269, 570.1916666666667, N
205666, 571.2944444444445, N
206016, 572.2666666666667, N
206350, 573.1944444444445, N
206706, 574.1833333333333, N
207057, 575.1583333333333, N
207403, 576.1194444444444, N
207765, 577.125, N
208141, 578.1694444444445, N
208528, 579.2444444444444, N
208858, 580.1611111111112, N
209163, 581.0083333333333, N
209574, 582.15, N
209975, 583.2638888888889, N
210333, 584.2583333333333, N
210702, 585.2833333333333, N
211086, 586.35, N
211456, 587.3777777777777, N
211829, 588.4138888888889, N
212234, 589.5388888888889, N
212611, 590.5861111111111, N
212996, 591.6555555555556, N
213362, 592.6722222222222, N
213710, 593.6388888888889, N
214095, 594.7083333333334, N
214487, 595.7972222222222, N
214864, 596.8444444444444, N
215194, 597.7611111111111, N
215552, 598.7555555555556, N
215948, 599.8555555555556, N
216356, 600.9888888888889, N
216709, 601.9694444444444, N
217086, 603.0166666666667, N
217479, 604.1083333333333, N
217820, 605.0555555555555, N
218175, 606.0416666666666, N
218551, 607.0861111111111, N
218920, 608.1111111111111, N
219273, 609.0916666666667, N
219592, 609.9777777777778, N
219942, 610.95, N
220333, 612.0361111111112, N
220703, 613.0638888888889, N
221040, 614.0, N
221398, 614.9944444444444, N
221757, 615.9916666666667, N
222083, 616.8972222222222, N
222452, 617.9222222222222, N
222847, 619.0194444444444, N
223224, 620.0666666666667, N
223614, 621.15, N
223973, 622.1472222222222, N
224338, 623.1611111111112, N
224751, 624.3083333333333, N
225148, 625.4111111111112, N
225485, 626.3472222222222, N
225852, 627.3666666666667, N
226227, 628.4083333333333, N
226591, 629.4194444444445, N
226965, 630.4583333333334, N
227350, 631.5277777777778, N
227723, 632.5638888888889, N
228073, 633.5361111111112, N
228386, 634.4055555555556, N
228702, 635.2833333333333, N
229091, 636.3638888888889, N
229489, 637.4694444444444, N
229848, 638.4666666666667, N
230214, 639.4833333333333, N
230580, 640.5, N
230934, 641.4833333333333, N
231300, 642.5, N
231689, 643.5805555555555, N
232063, 644.6194444444444, N
232412, 645.5888888888888, N
232766, 646.5722222222222, N
233125, 647.5694444444445, N
233538, 648.7166666666667, N
233917, 649.7694444444444, N
234269, 650.7472222222223, N
234642, 651.7833333333333, N
235007, 652.7972222222222, N
235397, 653.8805555555556, N
235753, 654.8694444444444, N
236109, 655.8583333333333, N
236487, 656.9083333333333, N
236870, 657.9722222222222, N
237207, 658.9083333333333, N
237607, 660.0194444444444, N
238027, 661.1861111111111, N
238386, 662.1833333333333, N
238721, 663.1138888888889, N
239067, 664.075, N
239423, 665.0638888888889, N
239821, 666.1694444444445, N
240198, 667.2166666666667, N
240577, 668.2694444444444, N
240944, 669.2888888888889, N
241292, 670.2555555555556, N
241602, 671.1166666666667, N
241962, 672.1166666666667, N
242312, 673.0888888888888, N
242679, 674.1083333333333, N
243039, 675.1083333333333, N
243381, 676.0583333333333, N
243711, 676.975, N
244082, 678.0055555555556, N
244435, 678.9861111111111, N
244778, 679.9388888888889, N
245164, 681.0111111111111, N
245551, 682.0861111111111, N
245881, 683.0027777777777, N
246262, 684.0611111111111, N
246665, 685.1805555555555, N
247051, 686.2527777777777, N
247395, 687.2083333333334, N
247746, 688.1833333333333, N
248105, 689.1805555555555, N
248503, 690.2861111111112, N
248862, 691.2833333333333, N
249197, 692.2138888888888, N
249562, 693.2277777777778, N
249943, 694.2861111111112, N
250295, 695.2638888888889, N
250700, 696.3888888888889, N
251098, 697.4944444444444, N
251470, 698.5277777777778, N
251812, 699.4777777777778, N
252165, 700.4583333333334, N
252528, 701.4666666666667, N
252938, 702.6055555555556, N
253315, 703.6527777777778, N
253675, 704.6527777777778, N
254033, 705.6472222222222, N
254372, 706.5888888888888, N
254683, 707.4527777777778, N
254978, 708.2722222222222, N
255258, 709.05, N
255550, 709.8611111111111, N
255848, 710.6888888888889, N
256121, 711.4472222222222, N
256383, 712.175, N
256661, 712.9472222222222, N
257148, 714.3, N
257593, 715.5361111111112, N
257932, 716.4777777777778, N
258229, 717.3027777777778, N
258518, 718.1055555555556, N
258790, 718.8611111111111, N
259226, 720.0722222222222, N
259636, 721.2111111111111, N
260009, 722.2472222222223, N
260376, 723.2666666666667, N
260772, 724.3666666666667, N
261169, 725.4694444444444, N
261575, 726.5972222222222, N
261976, 727.7111111111111, N
262369, 728.8027777777778, N
262704, 729.7333333333333, N
263004, 730.5666666666667, N
263322, 731.45, N
263685, 732.4583333333334, N
264061, 733.5027777777777, N
264436, 734.5444444444445, N
264819, 735.6083333333333, N
265178, 736.6055555555556, N
265499, 737.4972222222223, N
265844, 738.4555555555555, N
266168, 739.3555555555556, N
266518, 740.3277777777778, N
266903, 741.3972222222222, N
267292, 742.4777777777778, N
267634, 743.4277777777778, N
267959, 744.3305555555555, N
268260, 745.1666666666666, N
268540, 745.9444444444445, N
268813, 746.7027777777778, N
269081, 747.4472222222222, N
269347, 748.1861111111111, N
269588, 748.8555555555556, N
269878, 749.6611111111112, N
270248, 750.6888888888889, N
270603, 751.675, N
270943, 752.6194444444444, N
271359, 753.775, N
271751, 754.8638888888889, N
272181, 756.0583333333333, N
272610, 757.25, N
273006, 758.35, N
273412, 759.4777777777778, N
273816, 760.6, N
274197, 761.6583333333333, N
274577, 762.7138888888888, N
274935, 763.7083333333334, N
275307, 764.7416666666667, N
275686, 765.7944444444445, N
276045, 766.7916666666666, N
276457, 767.9361111111111, N
276873, 769.0916666666667, N
277273, 770.2027777777778, N
277651, 771.2527777777777, N
277972, 772.1444444444444, N
278283, 773.0083333333333, N
278694, 774.15, N
279094, 775.2611111111111, N
279450, 776.25, N
279858, 777.3833333333333, N
280262, 778.5055555555556, N
280653, 779.5916666666667, N
281044, 780.6777777777778, N
281420, 781.7222222222222, N
281781, 782.725, N
282141, 783.725, N
282482, 784.6722222222222, N
282797, 785.5472222222222, N
283129, 786.4694444444444, N
283525, 787.5694444444445, N
283927, 788.6861111111111, N
284296, 789.7111111111111, N
284663, 790.7305555555556, N
285067, 791.8527777777778, N
285488, 793.0222222222222, N
285875, 794.0972222222222, N
286236, 795.1, N
286585, 796.0694444444445, N
286937, 797.0472222222222, N
287335, 798.1527777777778, N
287707, 799.1861111111111, N
288070, 800.1944444444445, N
288450, 801.25, N
288827, 802.2972222222222, N
289160, 803.2222222222222, N
289490, 804.1388888888889, N
289857, 805.1583333333333, N
290242, 806.2277777777778, N
290613, 807.2583333333333, N
290940, 808.1666666666666, N
291276, 809.1, N
291700, 810.2777777777778, N
292097, 811.3805555555556, N
292433, 812.3138888888889, N
292776, 813.2666666666667, N
293138, 814.2722222222222, N
293486, 815.2388888888889, N
293845, 816.2361111111111, N
294212, 817.2555555555556, N
294572, 818.2555555555556, N
294943, 819.2861111111112, N
295289, 820.2472222222223, N
295629, 821.1916666666667, N
295993, 822.2027777777778, N
296360, 823.2222222222222, N
296706, 824.1833333333333, N
297039, 825.1083333333333, N
297383, 826.0638888888889, N
297748, 827.0777777777778, N
298111, 828.0861111111111, N
298428, 828.9666666666667, N
298773, 829.925, N
299198, 831.1055555555556, N
299597, 832.2138888888888, N
299953, 833.2027777777778, N
300389, 834.4138888888889, N
300833, 835.6472222222222, N
301217, 836.7138888888888, N
301534, 837.5944444444444, N
301876, 838.5444444444445, N
302270, 839.6388888888889, N
302691, 840.8083333333333, N
303057, 841.825, N
303429, 842.8583333333333, N
303818, 843.9388888888889, N
304191, 844.975, N
304618, 846.1611111111112, N
305028, 847.3, N
305421, 848.3916666666667, N
305768, 849.3555555555556, N
306085, 850.2361111111111, N
306438, 851.2166666666667, N
306877, 852.4361111111111, N
307264, 853.5111111111111, N
307641, 854.5583333333333, N
308041, 855.6694444444445, N
308434, 856.7611111111111, N
308828, 857.8555555555556, N
309258, 859.05, N
309675, 860.2083333333334, N
310057, 861.2694444444444, N
310398, 862.2166666666667, N
310740, 863.1666666666666, N
311143, 864.2861111111112, N
311544, 865.4, N
311915, 866.4305555555555, N
312255, 867.375, N
312597, 868.325, N
312958, 869.3277777777778, N
313376, 870.4888888888889, N
313731, 871.475, N
314065, 872.4027777777778, N
314452, 873.4777777777778, N
314833, 874.5361111111112, N
315188, 875.5222222222222, N
315585, 876.625, N
315996, 877.7666666666667, N
316364, 878.7888888888889, N
316691, 879.6972222222222, N
317046, 880.6833333333333, N
317427, 881.7416666666667, N
317789, 882.7472222222223, N
318121, 883.6694444444445, N
318473, 884.6472222222222, N
318836, 885.6555555555556, N
319163, 886.5638888888889, N
319521, 887.5583333333333, N
319922, 888.6722222222222, N
320297, 889.7138888888888, N
320631, 890.6416666666667, N
320974, 891.5944444444444, N
321320, 892.5555555555555, N
321658, 893.4944444444444, N
322000, 894.4444444444445, N
322354, 895.4277777777778, N
322701, 896.3916666666667, N
323065, 897.4027777777778, N
323379, 898.275, N
323687, 899.1305555555556, N
324029, 900.0805555555555, N
324374, 901.0388888888889, N
324698, 901.9388888888889, N
325067, 902.9638888888888, N
325442, 904.0055555555556, N
325796, 904.9888888888889, N
326158, 905.9944444444444, N
326549, 907.0805555555555, N
326933, 908.1472222222222, N
327329, 909.2472222222223, N
327675, 910.2083333333334, N
327993, 911.0916666666667, N
328387, 912.1861111111111, N
328814, 913.3722222222223, N
329188, 914.4111111111112, N
329548, 915.4111111111112, N
329939, 916.4972222222223, N
330315, 917.5416666666666, N
330667, 918.5194444444444, N
331041, 919.5583333333333, N
331431, 920.6416666666667, N
331770, 921.5833333333334, N
332082, 922.45, N
332405, 923.3472222222222, N
332782, 924.3944444444444, N
333106, 925.2944444444445, N
333432, 926.2, N
333857, 927.3805555555556, N
334261, 928.5027777777777, N
334625, 929.5138888888889, N
335043, 930.675, N
335428, 931.7444444444444, N
335756, 932.6555555555556, N
336063, 933.5083333333333, N
336399, 934.4416666666667, N
336759, 935.4416666666667, N
337115, 936.4305555555555, N
337486, 937.4611111111111, N
337866, 938.5166666666667, N
338225, 939.5138888888889, N
338549, 940.4138888888889, N
338896, 941.3777777777777, N
339306, 942.5166666666667, N
339687, 943.575, N
340013, 944.4805555555556, N
340327, 945.3527777777778, N
340654, 946.2611111111111, N
340987, 947.1861111111111, N
341331, 948.1416666666667, N
341686, 949.1277777777777, N
342035, 950.0972222222222, N
342417, 951.1583333333333, N
342756, 952.1, N
343092, 953.0333333333333, N
343501, 954.1694444444445, N
343897, 955.2694444444444, N
344234, 956.2055555555555, N
344562, 957.1166666666667, N
344888, 958.0222222222222, N
345226, 958.9611111111111, N
345572, 959.9222222222222, N
345915, 960.875, N
346279, 961.8861111111111, N
346678, 962.9944444444444, N
347016, 963.9333333333333, N
347335, 964.8194444444445, N
347731, 965.9194444444445, N
348090, 966.9166666666666, N
348392, 967.7555555555556, N
348710, 968.6388888888889, N
349083, 969.675, N
349446, 970.6833333333333, N
349792, 971.6444444444444, N
350198, 972.7722222222222, N
350584, 973.8444444444444, N
350934, 974.8166666666667, N
351243, 975.675, N
351551, 976.5305555555556, N
351927, 977.575, N
352355, 978.7638888888889, N
352734, 979.8166666666667, N
353114, 980.8722222222223, N
353485, 981.9027777777778, N
353812, 982.8111111111111, N
354140, 983.7222222222222, N
354469, 984.6361111111111, N
354788, 985.5222222222222, N
355097, 986.3805555555556, N
355391, 987.1972222222222, N
355661, 987.9472222222222, N
355916, 988.6555555555556, N
356214, 989.4833333333333, N
356561, 990.4472222222222, N
356972, 991.5888888888888, N
357356, 992.6555555555556, N
357752, 993.7555555555556, N
358155, 994.875, N
358556, 995.9888888888889, N
358983, 997.175, N
359384, 998.2888888888889, N
359778, 999.3833333333333, N
360133, 1000.3694444444444, N
360526, 1001.4611111111111, N
360930, 1002.5833333333334, N
361302, 1003.6166666666667, N
361640, 1004.5555555555555, N
361958, 1005.4388888888889, N
362302, 1006.3944444444444, N
362680, 1007.4444444444445, N
363088, 1008.5777777777778, N
363466, 1009.6277777777777, N
363819, 1010.6083333333333, N
364209, 1011.6916666666667, N
364554, 1012.65, N
364909, 1013.6361111111111, N
365211, 1014.475, N
365494, 1015.2611111111111, N
365795, 1016.0972222222222, N
366138, 1017.05, N
366414, 1017.8166666666667, N
366681, 1018.5583333333333, N
366982, 1019.3944444444444, N
367475, 1020.7638888888889, N
367902, 1021.95, N
368332, 1023.1444444444444, N
368750, 1024.3055555555557, N
369155, 1025.4305555555557, N
369589, 1026.6361111111112, N
369978, 1027.7166666666667, N
370371, 1028.8083333333334, N
370765, 1029.9027777777778, N
371161, 1031.0027777777777, N
371577, 1032.1583333333333, N
371964, 1033.2333333333333, N
372367, 1034.3527777777779, N
372763, 1035.4527777777778, N
373142, 1036.5055555555555, N
373522, 1037.5611111111111, N
373944, 1038.7333333333333, N
374344, 1039.8444444444444, N
374713, 1040.8694444444445, N
375053, 1041.8138888888889, N
375378, 1042.7166666666667, N
375781, 1043.8361111111112, N
376189, 1044.9694444444444, N
376520, 1045.888888888889, N
376896, 1046.9333333333334, N
377302, 1048.0611111111111, N
377683, 1049.1194444444445, N
378030, 1050.0833333333333, N
378378, 1051.05, N
378730, 1052.0277777777778, N
379107, 1053.075, N
379459, 1054.0527777777777, N
379810, 1055.0277777777778, N
380246, 1056.2388888888888, N
380639, 1057.3305555555555, N
380994, 1058.3166666666666, N
381349, 1059.3027777777777, N
381729, 1060.3583333333333, N
382113, 1061.425, N
382507, 1062.5194444444444, N
382892, 1063.588888888889, N
383277, 1064.6583333333333, N
383673, 1065.7583333333334, N
384027, 1066.7416666666666, N
384394, 1067.7611111111112, N
384788, 1068.8555555555556, N
385181, 1069.9472222222223, N
385553, 1070.9805555555556, N
385906, 1071.9611111111112, N
386268, 1072.9666666666667, N
386662, 1074.0611111111111, N
387024, 1075.0666666666666, N
387353, 1075.9805555555556, N
387748, 1077.0777777777778, N
388131, 1078.1416666666667, N
388481, 1079.1138888888888, N
388862, 1080.1722222222222, N
389236, 1081.2111111111112, N
389628, 1082.3, N
389983, 1083.286111111111, N
390326, 1084.2388888888888, N
390699, 1085.275, N
391116, 1086.4333333333334, N
391486, 1087.4611111111112, N
391795, 1088.3194444444443, N
392153, 1089.3138888888889, N
392524, 1090.3444444444444, N
392892, 1091.3666666666666, N
393288, 1092.4666666666667, N
393678, 1093.55, N
394046, 1094.5722222222223, N
394359, 1095.4416666666666, N
394691, 1096.3638888888888, N
395046, 1097.35, N
395460, 1098.5, N
395811, 1099.475, N
396180, 1100.5, N
396575, 1101.5972222222222, N
396936, 1102.6, N
397292, 1103.588888888889, N
397670, 1104.638888888889, N
398052, 1105.7, N
398392, 1106.6444444444444, N
398697, 1107.4916666666666, N
399045, 1108.4583333333333, N
399437, 1109.5472222222222, N
399840, 1110.6666666666667, N
400203, 1111.675, N
400574, 1112.7055555555555, N
400942, 1113.7277777777779, N
401267, 1114.6305555555555, N
401650, 1115.6944444444443, N
402056, 1116.8222222222223, N
402432, 1117.8666666666666, N
402786, 1118.85, N
403166, 1119.9055555555556, N
403529, 1120.9138888888888, N
403915, 1121.986111111111, N
404287, 1123.0194444444444, N
404659, 1124.0527777777777, N
405040, 1125.111111111111, N
405394, 1126.0944444444444, N
405709, 1126.9694444444444, N
406082, 1128.0055555555555, N
406491, 1129.1416666666667, N
406900, 1130.2777777777778, N
407281, 1131.3361111111112, N
407671, 1132.4194444444445, N
408062, 1133.5055555555555, N
408480, 1134.6666666666667, N
408880, 1135.7777777777778, N
409281, 1136.8916666666667, N
409633, 1137.8694444444445, N
409978, 1138.8277777777778, N
410389, 1139.9694444444444, N
410758, 1140.9944444444445, N
411121, 1142.0027777777777, N
411470, 1142.9722222222222, N
411813, 1143.925, N
412108, 1144.7444444444445, N
412473, 1145.7583333333334, N
412867, 1146.8527777777779, N
413233, 1147.8694444444445, N
413563, 1148.786111111111, N
413903, 1149.7305555555556, N
414241, 1150.6694444444445, N
414576, 1151.6, N
414891, 1152.475, N
415197, 1153.325, N
415500, 1154.1666666666667, N
415809, 1155.025, N
416091, 1155.8083333333334, N
416386, 1156.6277777777777, N
416728, 1157.5777777777778, N
417106, 1158.6277777777777, N
417432, 1159.5333333333333, N
417742, 1160.3944444444444, N
418077, 1161.325, N
418433, 1162.3138888888889, N
418739, 1163.1638888888888, N
419054, 1164.0388888888888, N
419380, 1164.9444444444443, N
419710, 1165.861111111111, N
420003, 1166.675, N
420294, 1167.4833333333333, N
420618, 1168.3833333333334, N
420999, 1169.4416666666666, N
421387, 1170.5194444444444, N
421787, 1171.6305555555555, N
422175, 1172.7083333333333, N
422530, 1173.6944444444443, N
422910, 1174.75, N
423332, 1175.9222222222222, N
423708, 1176.9666666666667, N
424072, 1177.9777777777779, N
424468, 1179.0777777777778, N
424826, 1180.0722222222223, N
425189, 1181.0805555555555, N
425597, 1182.213888888889, N
425977, 1183.2694444444444, N
426330, 1184.25, N
426703, 1185.286111111111, N
427074, 1186.3166666666666, N
427400, 1187.2222222222222, N
427765, 1188.236111111111, N
428198, 1189.4388888888889, N
428605, 1190.5694444444443, N
429003, 1191.675, N
429379, 1192.7194444444444, N
429809, 1193.9138888888888, N
430227, 1195.075, N
430615, 1196.1527777777778, N
431022, 1197.2833333333333, N
431429, 1198.4138888888888, N
431823, 1199.5083333333334, N
432271, 1200.7527777777777, N
432662, 1201.838888888889, N
433025, 1202.8472222222222, N
433421, 1203.9472222222223, N
433816, 1205.0444444444445, N
434210, 1206.138888888889, N
434600, 1207.2222222222222, N
434970, 1208.25, N
435315, 1209.2083333333333, N
435698, 1210.2722222222221, N
436088, 1211.3555555555556, N
436472, 1212.4222222222222, N
436837, 1213.4361111111111, N
437198, 1214.4388888888889, N
437569, 1215.4694444444444, N
437929, 1216.4694444444444, N
438332, 1217.588888888889, N
438704, 1218.6222222222223, N
439063, 1219.6194444444445, N
439400, 1220.5555555555557, N
439736, 1221.4888888888888, N
440051, 1222.3638888888888, N
440407, 1223.3527777777779, N
440838, 1224.55, N
441240, 1225.6666666666667, N
441611, 1226.6972222222223, N
441974, 1227.7055555555555, N
442294, 1228.5944444444444, N
442617, 1229.4916666666666, N
442954, 1230.4277777777777, N
443297, 1231.3805555555555, N
443594, 1232.2055555555555, N
443896, 1233.0444444444445, N
444222, 1233.95, N
444566, 1234.9055555555556, N
444921, 1235.8916666666667, N
445255, 1236.8194444444443, N
445589, 1237.7472222222223, N
445924, 1238.6777777777777, N
446243, 1239.5638888888889, N
446541, 1240.3916666666667, N
446858, 1241.2722222222221, N
447211, 1242.2527777777777, N
447522, 1243.1166666666666, N
447797, 1243.8805555555555, N
448072, 1244.6444444444444, N
448357, 1245.4361111111111, N
448764, 1246.5666666666666, N
449176, 1247.7111111111112, N
449554, 1248.7611111111112, N
449930, 1249.8055555555557, N
450297, 1250.825, N
450622, 1251.7277777777779, N
450910, 1252.5277777777778, N
451234, 1253.4277777777777, N
451666, 1254.6277777777777, N
452052, 1255.7, N
452355, 1256.5416666666667, N
452656, 1257.3777777777777, N
452992, 1258.3111111111111, N
453364, 1259.3444444444444, N
453769, 1260.4694444444444, N
454134, 1261.4833333333333, N
454471, 1262.4194444444445, N
454845, 1263.4583333333333, N
455212, 1264.4777777777779, N
455519, 1265.3305555555555, N
455836, 1266.2111111111112, N
456180, 1267.1666666666667, N
456537, 1268.1583333333333, N
456902, 1269.1722222222222, N
457077, 1269.6583333333333, a
457417, 1270.6027777777779, N
457784, 1271.6222222222223, N
458149, 1272.6361111111112, N
458472, 1273.5333333333333, N
458792, 1274.4222222222222, N
459141, 1275.3916666666667, N
459471, 1276.3083333333334, N
459766, 1277.1277777777777, N
460093, 1278.036111111111, N
460437, 1278.9916666666666, N
460793, 1279.9805555555556, N
461130, 1280.9166666666667, N
461470, 1281.861111111111, N
461832, 1282.8666666666666, N
462231, 1283.975, N
462581, 1284.9472222222223, N
462945, 1285.9583333333333, N
463338, 1287.05, N
463722, 1288.1166666666666, N
464084, 1289.1222222222223, N
464519, 1290.3305555555555, N
464921, 1291.4472222222223, N
465285, 1292.4583333333333, N
465668, 1293.5222222222221, N
466050, 1294.5833333333333, N
466438, 1295.661111111111, N
466855, 1296.8194444444443, N
467248, 1297.911111111111, N
467604, 1298.9, N
467990, 1299.9722222222222, N
468377, 1301.0472222222222, N
468756, 1302.1, N
469160, 1303.2222222222222, N
469563, 1304.3416666666667, N
469910, 1305.3055555555557, N
470221, 1306.1694444444445, N
470614, 1307.2611111111112, N
471057, 1308.4916666666666, N
471422, 1309.5055555555555, N
471727, 1310.3527777777779, N
472069, 1311.3027777777777, N
472432, 1312.3111111111111, N
472799, 1313.3305555555555, N
473171, 1314.3638888888888, N
473548, 1315.411111111111, N
473927, 1316.463888888889, N
474269, 1317.4138888888888, N
474592, 1318.3111111111111, N
474939, 1319.275, N
475317, 1320.325, N
475669, 1321.3027777777777, N
476036, 1322.3222222222223, N
476411, 1323.3638888888888, N
476756, 1324.3222222222223, N
477062, 1325.1722222222222, N
477431, 1326.1972222222223, N
477806, 1327.2388888888888, N
478142, 1328.1722222222222, N
478467, 1329.075, N
478814, 1330.0388888888888, N
479194, 1331.0944444444444, N
479588, 1332.1888888888889, N
479959, 1333.2194444444444, N
480325, 1334.236111111111, N
480698, 1335.2722222222221, N
481049, 1336.2472222222223, N
481219, 1336.7194444444444, a
481614, 1337.8166666666666, N
482033, 1338.9805555555556, N
482407, 1340.0194444444444, N
482744, 1340.9555555555555, N
483128, 1342.0222222222221, N
483503, 1343.0638888888889, N
483858, 1344.05, N
484234, 1345.0944444444444, N
484571, 1346.0305555555556, N
484912, 1346.9777777777779, N
485217, 1347.825, N
485519, 1348.6638888888888, N
485881, 1349.6694444444445, N
486246, 1350.6833333333334, N
486559, 1351.5527777777777, N
486879, 1352.4416666666666, N
487208, 1353.3555555555556, N
487529, 1354.2472222222223, N
487815, 1355.0416666666667, N
488137, 1355.9361111111111, N
488482, 1356.8944444444444, N
488776, 1357.7111111111112, N
489054, 1358.4833333333333, N
489379, 1359.3861111111112, N
489763, 1360.4527777777778, N
490149, 1361.525, N
490499, 1362.4972222222223, N
490889, 1363.5805555555555, N
491275, 1364.6527777777778, N
491611, 1365.5861111111112, N
491938, 1366.4944444444445, N
492297, 1367.4916666666666, N
492682, 1368.5611111111111, N
493016, 1369.4888888888888, N
493375, 1370.486111111111, N
493738, 1371.4944444444445, N
494079, 1372.4416666666666, N
494437, 1373.4361111111111, N
494819, 1374.4972222222223, N
495174, 1375.4833333333333, N
495510, 1376.4166666666667, N
495852, 1377.3666666666666, N
496174, 1378.2611111111112, N
496489, 1379.1361111111112, N
496879, 1380.2194444444444, N
497232, 1381.2, N
497558, 1382.1055555555556, N
497931, 1383.1416666666667, N
498287, 1384.1305555555555, N
498615, 1385.0416666666667, N
499008, 1386.1333333333334, N
499403, 1387.2305555555556, N
499761, 1388.225, N
500111, 1389.1972222222223, N
500468, 1390.1888888888889, N
500803, 1391.1194444444445, N
501186, 1392.1833333333334, N
501571, 1393.2527777777777, N
501936, 1394.2666666666667, N
502274, 1395.2055555555555, N
502630, 1396.1944444444443, N
502986, 1397.1833333333334, N
503336, 1398.1555555555556, N
503692, 1399.1444444444444, N
504052, 1400.1444444444444, N
504410, 1401.138888888889, N
504778, 1402.161111111111, N
505152, 1403.2, N
505527, 1404.2416666666666, N
505892, 1405.2555555555555, N
506270, 1406.3055555555557, N
506619, 1407.275, N
506952, 1408.2, N
507316, 1409.2111111111112, N
507718, 1410.3277777777778, N
508086, 1411.35, N
508448, 1412.3555555555556, N
508824, 1413.4, N
509160, 1414.3333333333333, N
509510, 1415.3055555555557, N
509898, 1416.3833333333334, N
510261, 1417.3916666666667, N
510639, 1418.4416666666666, N
510985, 1419.4027777777778, N
511361, 1420.4472222222223, N
511758, 1421.55, N
512120, 1422.5555555555557, N
512473, 1423.536111111111, N
512840, 1424.5555555555557, N
513184, 1425.5111111111112, N
513485, 1426.3472222222222, N
513836, 1427.3222222222223, N
514265, 1428.513888888889, N
514604, 1429.4555555555555, N
514926, 1430.35, N
515271, 1431.3083333333334, N
515631, 1432.3083333333334, N
515921, 1433.1138888888888, N
516236, 1433.9888888888888, N
516575, 1434.9305555555557, N
516907, 1435.8527777777779, N
517209, 1436.6916666666666, N
517551, 1437.6416666666667, N
517896, 1438.6, N
518252, 1439.588888888889, N
518604, 1440.5666666666666, N
518959, 1441.5527777777777, N
519284, 1442.4555555555555, N
519588, 1443.3, N
519934, 1444.2611111111112, N
520260, 1445.1666666666667, N
520625, 1446.1805555555557, N
520978, 1447.161111111111, N
521327, 1448.1305555555555, N
521645, 1449.013888888889, N
521935, 1449.8194444444443, N
522213, 1450.5916666666667, N
522539, 1451.4972222222223, N
522860, 1452.388888888889, N
523224, 1453.4, N
523603, 1454.4527777777778, N
523945, 1455.4027777777778, N
524256, 1456.2666666666667, N
524600, 1457.2222222222222, N
524995, 1458.3194444444443, N
525349, 1459.3027777777777, N
525673, 1460.2027777777778, N
526001, 1461.1138888888888, N
526318, 1461.9944444444445, N
526598, 1462.7722222222221, N
526924, 1463.6777777777777, N
527262, 1464.6166666666666, N
527608, 1465.5777777777778, N
527900, 1466.388888888889, N
528182, 1467.1722222222222, N
528444, 1467.9, N
528689, 1468.5805555555555, N
528930, 1469.25, N
529206, 1470.0166666666667, N
529663, 1471.286111111111, N
530050, 1472.361111111111, N
530388, 1473.3, N
530756, 1474.3222222222223, N
531151, 1475.4194444444445, N
531543, 1476.5083333333334, N
531882, 1477.45, N
532230, 1478.4166666666667, N
532590, 1479.4166666666667, N
532953, 1480.425, N
533349, 1481.525, N
533772, 1482.7, N
534163, 1483.786111111111, N
534538, 1484.8277777777778, N
534908, 1485.8555555555556, N
535276, 1486.8777777777777, N
535636, 1487.8777777777777, N
536012, 1488.9222222222222, N
536390, 1489.9722222222222, N
536786, 1491.0722222222223, N
537149, 1492.0805555555555, N
537507, 1493.075, N
537891, 1494.1416666666667, N
538220, 1495.0555555555557, N
538555, 1495.986111111111, N
538927, 1497.0194444444444, N
539288, 1498.0222222222221, N
539634, 1498.9833333333333, N
540056, 1500.1555555555556, N
540436, 1501.2111111111112, N
540789, 1502.1916666666666, N
541145, 1503.1805555555557, N
541462, 1504.0611111111111, N
541744, 1504.8444444444444, N
542107, 1505.8527777777779, N
542491, 1506.9194444444445, N
542802, 1507.7833333333333, N
543104, 1508.6222222222223, N
543437, 1509.5472222222222, N
543789, 1510.525, N
544101, 1511.3916666666667, N
544462, 1512.3944444444444, N
544831, 1513.4194444444445, N
545132, 1514.2555555555555, N
545428, 1515.0777777777778, N
545751, 1515.975, N
546138, 1517.05, N
546553, 1518.2027777777778, N
546953, 1519.3138888888889, N
547339, 1520.3861111111112, N
547690, 1521.361111111111, N
548054, 1522.3722222222223, N
548426, 1523.4055555555556, N
548837, 1524.5472222222222, N
549204, 1525.5666666666666, N
549529, 1526.4694444444444, N
549888, 1527.4666666666667, N
550253, 1528.4805555555556, N
550618, 1529.4944444444445, N
551016, 1530.6, N
551369, 1531.5805555555555, N
551673, 1532.425, N
552000, 1533.3333333333333, N
552355, 1534.3194444444443, N
552669, 1535.1916666666666, N
553008, 1536.1333333333334, N
553419, 1537.275, N
553816, 1538.3777777777777, N
554200, 1539.4444444444443, N
554582, 1540.5055555555555, N
554968, 1541.5777777777778, N
555343, 1542.6194444444445, N
555708, 1543.6333333333334, N
556041, 1544.5583333333334, N
556356, 1545.4333333333334, N
556664, 1546.2888888888888, N
556959, 1547.1083333333333, N
557280, 1548.0, N
557612, 1548.9222222222222, N
557951, 1549.8638888888888, N
558262, 1550.7277777777779, N
558589, 1551.6361111111112, N
558951, 1552.6416666666667, N
559289, 1553.5805555555555, N
559612, 1554.4777777777779, N
559956, 1555.4333333333334, N
560270, 1556.3055555555557, N
560573, 1557.1472222222221, N
560971, 1558.2527777777777, N
561362, 1559.338888888889, N
561738, 1560.3833333333334, N
562099, 1561.3861111111112, N
562458, 1562.3833333333334, N
562784, 1563.2888888888888, N
563133, 1564.2583333333334, N
563480, 1565.2222222222222, N
563807, 1566.1305555555555, N
564136, 1567.0444444444445, N
564435, 1567.875, N
564762, 1568.7833333333333, N
565063, 1569.6194444444445, N
565388, 1570.5222222222221, N
565753, 1571.536111111111, N
566143, 1572.6194444444445, N
566490, 1573.5833333333333, N
566827, 1574.5194444444444, N
567160, 1575.4444444444443, N
567488, 1576.3555555555556, N
567770, 1577.138888888889, N
568084, 1578.0111111111112, N
568403, 1578.8972222222221, N
568722, 1579.7833333333333, N
569035, 1580.6527777777778, N
569311, 1581.4194444444445, N
569587, 1582.1861111111111, N
569949, 1583.1916666666666, N
570370, 1584.361111111111, N
570711, 1585.3083333333334, N
571006, 1586.1277777777777, N
571303, 1586.9527777777778, N
571638, 1587.8833333333334, N
571938, 1588.7166666666667, N
572245, 1589.5694444444443, N
572610, 1590.5833333333333, N
572998, 1591.661111111111, N
573357, 1592.6583333333333, N
573656, 1593.4888888888888, N
573948, 1594.3, N
574270, 1595.1944444444443, N
574647, 1596.2416666666666, N
574970, 1597.138888888889, N
575274, 1597.9833333333333, N
575634, 1598.9833333333333, N
575999, 1599.9972222222223, N
576349, 1600.9694444444444, N
576706, 1601.9611111111112, N
577062, 1602.95, N
577398, 1603.8833333333334, N
577725, 1604.7916666666667, N
578012, 1605.588888888889, N
578289, 1606.3583333333333, N
578574, 1607.15, N
578938, 1608.161111111111, N
579314, 1609.2055555555555, N
579639, 1610.1083333333333, N
579970, 1611.0277777777778, N
580323, 1612.0083333333334, N
580683, 1613.0083333333334, N
581040, 1614.0, N
581386, 1614.9611111111112, N
581743, 1615.9527777777778, N
582107, 1616.963888888889, N
582419, 1617.8305555555555, N
582725, 1618.6805555555557, N
583094, 1619.7055555555555, N
583456, 1620.7111111111112, N
583782, 1621.6166666666666, N
584099, 1622.4972222222223, N
584452, 1623.4777777777779, N
584829, 1624.525, N
585155, 1625.4305555555557, N
585498, 1626.3833333333334, N
585855, 1627.375, N
586223, 1628.3972222222221, N
586598, 1629.4388888888889, N
586961, 1630.4472222222223, N
587351, 1631.5305555555556, N
587761, 1632.6694444444445, N
588157, 1633.7694444444444, N
588519, 1634.775, N
588883, 1635.786111111111, N
589244, 1636.7888888888888, N
589622, 1637.838888888889, N
590008, 1638.911111111111, N
590403, 1640.0083333333334, N
590810, 1641.138888888889, N
591189, 1642.1916666666666, N
591592, 1643.3111111111111, N
592012, 1644.4777777777779, N
592414, 1645.5944444444444, N
592805, 1646.6805555555557, N
593194, 1647.7611111111112, N
593552, 1648.7555555555555, N
593966, 1649.9055555555556, N
594369, 1651.025, N
594760, 1652.111111111111, N
595139, 1653.1638888888888, N
595487, 1654.1305555555555, N
595854, 1655.15, N
596268, 1656.3, N
596637, 1657.325, N
596996, 1658.3222222222223, N
597399, 1659.4416666666666, N
597762, 1660.45, N
598087, 1661.3527777777779, N
598448, 1662.3555555555556, N
598829, 1663.4138888888888, N
599159, 1664.3305555555555, N
599449, 1665.1361111111112, N
599757, 1665.9916666666666, N
600150, 1667.0833333333333, N
600551, 1668.1972222222223, N
600900, 1669.1666666666667, N
601257, 1670.1583333333333, N
601650, 1671.25, N
602012, 1672.2555555555555, N
602358, 1673.2166666666667, N
602735, 1674.263888888889, N
603095, 1675.263888888889, N
603420, 1676.1666666666667, N
603743, 1677.0638888888889, N
604091, 1678.0305555555556, N
604418, 1678.9388888888889, N
604779, 1679.9416666666666, N
605155, 1680.986111111111, N
605531, 1682.0305555555556, N
605905, 1683.0694444444443, N
606243, 1684.0083333333334, N
606607, 1685.0194444444444, N
607023, 1686.175, N
607393, 1687.2027777777778, N
607755, 1688.2083333333333, N
608118, 1689.2166666666667, N
608467, 1690.1861111111111, N
608760, 1691.0, N
609080, 1691.888888888889, N
609423, 1692.8416666666667, N
609748, 1693.7444444444445, N
610043, 1694.5638888888889, N
610337, 1695.3805555555555, N
610624, 1696.1777777777777, N
610925, 1697.013888888889, N
611223, 1697.8416666666667, N
611508, 1698.6333333333334, N
611776, 1699.3777777777777, N
612037, 1700.1027777777779, N
612354, 1700.9833333333333, N
612635, 1701.763888888889, N
612939, 1702.6083333333333, N
613300, 1703.611111111111, N
613699, 1704.7194444444444, N
614041, 1705.6694444444445, N
614326, 1706.4611111111112, N
614633, 1707.3138888888889, N
614958, 1708.2166666666667, N
615304, 1709.1777777777777, N
615673, 1710.2027777777778, N
615994, 1711.0944444444444, N
616337, 1712.0472222222222, N
616705, 1713.0694444444443, N
617078, 1714.1055555555556, N
617405, 1715.013888888889, N
617803, 1716.1194444444445, N
618182, 1717.1722222222222, N
618525, 1718.125, N
618866, 1719.0722222222223, N
619220, 1720.0555555555557, N
619602, 1721.1166666666666, N
620012, 1722.2555555555555, N
620418, 1723.3833333333334, N
620807, 1724.463888888889, N
621182, 1725.5055555555555, N
621566, 1726.5722222222223, N
621953, 1727.6472222222221, N
622342, 1728.7277777777779, N
622688, 1729.6888888888889, N
623028, 1730.6333333333334, N
623375, 1731.5972222222222, N
623741, 1732.6138888888888, N
624089, 1733.5805555555555, N
624459, 1734.6083333333333, N
624835, 1735.6527777777778, N
625162, 1736.5611111111111, N
625489, 1737.4694444444444, N
625844, 1738.4555555555555, N
626261, 1739.6138888888888, N
626643, 1740.675, N
626971, 1741.5861111111112, N
627307, 1742.5194444444444, N
627594, 1743.3166666666666, N
627863, 1744.0638888888889, N
628109, 1744.7472222222223, N
628385, 1745.513888888889, N
628884, 1746.9, N
629278, 1747.9944444444445, N
629673, 1749.0916666666667, N
630077, 1750.213888888889, N
630479, 1751.3305555555555, N
630826, 1752.2944444444445, N
631165, 1753.236111111111, N
631556, 1754.3222222222223, N
631933, 1755.3694444444445, N
632276, 1756.3222222222223, N
632559, 1757.1083333333333, N
632928, 1758.1333333333334, N
633345, 1759.2916666666667, N
633744, 1760.4, N
634100, 1761.388888888889, N
634441, 1762.3361111111112, N
634808, 1763.3555555555556, N
635192, 1764.4222222222222, N
635547, 1765.4083333333333, N
635862, 1766.2833333333333, N
636204, 1767.2333333333333, N
636585, 1768.2916666666667, N
636962, 1769.338888888889, N
637326, 1770.35, N
637701, 1771.3916666666667, N
638070, 1772.4166666666667, N
638426, 1773.4055555555556, N
638741, 1774.2805555555556, N
639073, 1775.2027777777778, N
639473, 1776.3138888888889, N
639858, 1777.3833333333334, N
640180, 1778.2777777777778, N
640509, 1779.1916666666666, N
640849, 1780.1361111111112, N
641216, 1781.1555555555556, N
641627, 1782.2972222222222, N
641959, 1783.2194444444444, N
642270, 1784.0833333333333, N
642609, 1785.025, N
642927, 1785.9083333333333, N
643221, 1786.725, N
643583, 1787.7305555555556, N
643981, 1788.8361111111112, N
644345, 1789.8472222222222, N
644682, 1790.7833333333333, N
645051, 1791.8083333333334, N
645423, 1792.8416666666667, N
645805, 1793.9027777777778, N
646186, 1794.9611111111112, N
646577, 1796.0472222222222, N
646921, 1797.0027777777777, N
647215, 1797.8194444444443, N
647501, 1798.6138888888888, N
647807, 1799.463888888889, N
648142, 1800.3944444444444, N
648592, 1801.6444444444444, N
649008, 1802.8, N
649364, 1803.7888888888888, N
649675, 1804.6527777777778, N
649994, 1805.5388888888888, N
