21, 0.058333333333333334, +
310, 0.8611111111111112, N
726, 2.0166666666666666, N
1143, 3.175, N
1553, 4.313888888888889, N
1965, 5.458333333333333, N
2358, 6.55, N
2742, 7.616666666666666, N
3166, 8.794444444444444, N
3568, 9.911111111111111, N
3961, 11.002777777777778, N
4352, 12.088888888888889, N
4728, 13.133333333333333, N
5140, 14.277777777777779, N
5547, 15.408333333333333, N
5938, 16.494444444444444, N
6327, 17.575, N
6710, 18.63888888888889, N
7091, 19.697222222222223, N
7506, 20.85, N
7905, 21.958333333333332, N
8296, 23.044444444444444, N
8677, 24.102777777777778, N
9061, 25.169444444444444, N
9474, 26.316666666666666, N
9897, 27.491666666666667, N
10296, 28.6, N
10697, 29.71388888888889, N
11109, 30.858333333333334, N
11515, 31.98611111111111, N
11946, 33.18333333333333, N
12362, 34.33888888888889, N
12755, 35.43055555555556, N
13156, 36.544444444444444, N
13549, 37.63611111111111, N
13956, 38.766666666666666, N
14378, 39.93888888888889, N
14767, 41.019444444444446, N
15156, 42.1, N
15539, 43.16388888888889, N
15957, 44.325, N
16362, 45.45, N
16767, 46.575, N
17150, 47.638888888888886, N
17532, 48.7, N
17929, 49.80277777777778, N
18324, 50.9, N
18724, 52.01111111111111, N
19115, 53.09722222222222, N
19478, 54.105555555555554, N
19843, 55.11944444444445, N
20244, 56.233333333333334, N
20632, 57.31111111111111, N
21024, 58.4, N
21399, 59.44166666666667, N
21770, 60.47222222222222, N
22140, 61.5, N
22545, 62.625, N
22937, 63.71388888888889, N
23331, 64.80833333333334, N
23704, 65.84444444444445, N
24076, 66.87777777777778, N
24470, 67.97222222222223, N
24870, 69.08333333333333, N
25257, 70.15833333333333, N
25647, 71.24166666666666, N
26019, 72.275, N
26377, 73.26944444444445, N
26781, 74.39166666666667, N
27169, 75.46944444444445, N
27550, 76.52777777777777, N
27933, 77.59166666666667, N
28296, 78.6, N
28666, 79.62777777777778, N
29065, 80.73611111111111, N
29455, 81.81944444444444, N
29835, 82.875, N
30211, 83.91944444444445, N
30569, 84.91388888888889, N
30765, 85.45833333333333, V
31349, 87.08055555555555, N
31731, 88.14166666666667, N
32123, 89.23055555555555, N
32494, 90.2611111111111, N
32854, 91.2611111111111, N
33248, 92.35555555555555, N
33649, 93.46944444444445, N
34021, 94.50277777777778, N
34404, 95.56666666666666, N
34782, 96.61666666666666, N
35148, 97.63333333333334, N
35551, 98.75277777777778, N
35951, 99.8638888888889, N
36334, 100.92777777777778, N
36721, 102.00277777777778, N
37090, 103.02777777777777, N
37490, 104.13888888888889, N
37893, 105.25833333333334, N
38287, 106.35277777777777, N
38676, 107.43333333333334, N
39066, 108.51666666666667, N
39443, 109.56388888888888, N
39851, 110.69722222222222, N
40254, 111.81666666666666, N
40649, 112.91388888888889, N
41027, 113.96388888888889, N
41414, 115.03888888888889, N
41823, 116.175, N
42228, 117.3, N
42629, 118.41388888888889, N
43019, 119.49722222222222, N
43414, 120.59444444444445, N
43813, 121.70277777777778, N
44221, 122.83611111111111, N
44630, 123.97222222222223, N
45030, 125.08333333333333, N
45411, 126.14166666666667, N
45606, 126.68333333333334, V
46201, 128.3361111111111, N
46615, 129.48611111111111, N
47010, 130.58333333333334, N
47404, 131.67777777777778, N
47786, 132.73888888888888, N
48188, 133.85555555555555, N
48589, 134.96944444444443, N
48985, 136.06944444444446, N
49379, 137.1638888888889, N
49760, 138.22222222222223, N
50133, 139.25833333333333, N
50544, 140.4, N
50939, 141.49722222222223, N
51327, 142.575, N
51723, 143.675, N
52097, 144.7138888888889, N
52497, 145.825, N
52900, 146.94444444444446, N
53305, 148.06944444444446, N
53697, 149.15833333333333, N
54088, 150.24444444444444, N
54459, 151.275, N
54872, 152.42222222222222, N
55278, 153.55, N
55661, 154.61388888888888, N
56055, 155.70833333333334, N
56433, 156.75833333333333, N
56811, 157.80833333333334, N
57223, 158.95277777777778, N
57611, 160.03055555555557, N
57990, 161.08333333333334, N
58377, 162.15833333333333, N
58736, 163.15555555555557, N
59143, 164.2861111111111, N
59545, 165.40277777777777, N
59927, 166.4638888888889, N
60311, 167.53055555555557, N
60695, 168.59722222222223, N
61077, 169.65833333333333, N
61488, 170.8, N
61889, 171.9138888888889, N
62277, 172.99166666666667, N
62667, 174.075, N
63046, 175.12777777777777, N
63450, 176.25, N
63865, 177.40277777777777, N
64257, 178.49166666666667, N
64642, 179.5611111111111, N
65043, 180.675, N
65428, 181.74444444444444, N
65843, 182.8972222222222, N
66252, 184.03333333333333, N
66633, 185.09166666666667, N
67027, 186.1861111111111, N
67402, 187.2277777777778, N
67809, 188.35833333333332, N
68223, 189.50833333333333, N
68607, 190.575, N
68994, 191.65, N
69378, 192.71666666666667, N
69598, 193.32777777777778, V
70156, 194.87777777777777, N
70555, 195.98611111111111, N
70935, 197.04166666666666, N
71311, 198.0861111111111, N
71666, 199.07222222222222, N
72072, 200.2, N
72457, 201.26944444444445, N
72853, 202.36944444444444, N
73229, 203.4138888888889, N
73609, 204.46944444444443, N
73986, 205.51666666666668, N
74395, 206.65277777777777, N
74795, 207.76388888888889, N
75199, 208.88611111111112, N
75589, 209.96944444444443, N
75963, 211.00833333333333, N
76389, 212.19166666666666, N
76795, 213.31944444444446, N
77197, 214.4361111111111, N
77597, 215.54722222222222, N
77977, 216.6027777777778, N
78367, 217.6861111111111, N
78779, 218.83055555555555, N
79176, 219.93333333333334, N
79576, 221.04444444444445, N
79950, 222.08333333333334, N
80322, 223.11666666666667, N
80510, 223.63888888888889, V
81113, 225.3138888888889, N
81494, 226.37222222222223, N
81878, 227.4388888888889, N
82243, 228.45277777777778, N
82608, 229.46666666666667, N
83001, 230.55833333333334, N
83389, 231.63611111111112, N
83756, 232.65555555555557, N
84131, 233.69722222222222, N
84494, 234.70555555555555, N
84866, 235.73888888888888, N
85266, 236.85, N
85654, 237.92777777777778, N
86032, 238.9777777777778, N
86416, 240.04444444444445, N
86782, 241.0611111111111, N
87131, 242.03055555555557, V
87598, 243.32777777777778, N
87990, 244.41666666666666, N
88388, 245.5222222222222, N
88768, 246.57777777777778, N
88951, 247.0861111111111, V
89347, 248.1861111111111, J
89909, 249.74722222222223, N
90299, 250.83055555555555, N
90698, 251.9388888888889, N
90920, 252.55555555555554, V
91464, 254.06666666666666, N
91875, 255.20833333333334, N
92272, 256.31111111111113, N
92660, 257.3888888888889, N
92961, 258.225, V
93430, 259.52777777777777, N
93842, 260.6722222222222, N
94260, 261.8333333333333, N
94648, 262.9111111111111, N
94869, 263.525, V
95418, 265.05, N
95825, 266.18055555555554, N
96235, 267.31944444444446, N
96629, 268.4138888888889, N
97013, 269.48055555555555, N
97406, 270.5722222222222, N
97780, 271.6111111111111, N
98190, 272.75, N
98591, 273.8638888888889, N
98983, 274.9527777777778, N
99363, 276.0083333333333, N
99739, 277.0527777777778, N
100144, 278.1777777777778, N
100525, 279.2361111111111, V
100946, 280.40555555555557, N
101335, 281.4861111111111, N
101721, 282.55833333333334, N
102111, 283.64166666666665, N
102522, 284.78333333333336, N
102926, 285.90555555555557, N
103328, 287.02222222222224, N
103668, 287.96666666666664, V
104061, 289.05833333333334, N
104522, 290.3388888888889, N
104925, 291.4583333333333, N
105321, 292.55833333333334, N
105514, 293.09444444444443, V
106075, 294.65277777777777, N
106483, 295.7861111111111, N
106893, 296.925, N
107283, 298.0083333333333, N
107503, 298.61944444444447, V
108047, 300.13055555555553, N
108417, 301.15833333333336, N
108831, 302.30833333333334, N
109220, 303.3888888888889, N
109405, 303.90277777777777, V
109957, 305.43611111111113, N
110334, 306.48333333333335, N
110691, 307.475, N
111089, 308.5805555555556, N
111470, 309.6388888888889, N
111837, 310.65833333333336, N
112204, 311.6777777777778, N
112562, 312.6722222222222, N
112919, 313.6638888888889, N
113312, 314.75555555555553, N
113684, 315.7888888888889, N
114059, 316.8305555555556, N
114434, 317.8722222222222, N
114800, 318.8888888888889, N
115180, 319.94444444444446, N
115584, 321.06666666666666, N
115955, 322.09722222222223, N
116335, 323.15277777777777, N
116704, 324.1777777777778, N
117067, 325.18611111111113, N
117456, 326.26666666666665, N
117854, 327.3722222222222, N
118234, 328.4277777777778, N
118613, 329.48055555555555, N
119001, 330.55833333333334, N
119374, 331.59444444444443, N
119786, 332.7388888888889, N
120191, 333.8638888888889, N
120569, 334.9138888888889, N
120949, 335.96944444444443, N
121319, 336.9972222222222, N
121706, 338.0722222222222, N
122093, 339.14722222222224, V
122248, 339.5777777777778, V
122818, 341.1611111111111, N
123190, 342.19444444444446, N
123540, 343.1666666666667, N
123919, 344.21944444444443, N
124309, 345.3027777777778, N
124668, 346.3, N
125035, 347.31944444444446, N
125395, 348.31944444444446, N
125756, 349.3222222222222, N
126138, 350.3833333333333, N
126529, 351.46944444444443, N
126903, 352.5083333333333, N
127269, 353.525, N
127640, 354.55555555555554, N
128017, 355.60277777777776, N
128402, 356.6722222222222, N
128796, 357.76666666666665, N
129172, 358.81111111111113, N
129531, 359.80833333333334, N
129903, 360.84166666666664, N
130288, 361.9111111111111, N
130682, 363.00555555555553, N
131012, 363.9222222222222, V
131454, 365.15, N
131827, 366.18611111111113, N
132186, 367.18333333333334, N
132586, 368.2944444444444, N
132960, 369.3333333333333, F
133355, 370.43055555555554, N
133730, 371.47222222222223, N
133961, 372.1138888888889, V
134476, 373.5444444444444, N
134880, 374.6666666666667, N
135264, 375.73333333333335, N
135649, 376.8027777777778, N
136026, 377.85, N
136380, 378.8333333333333, N
136774, 379.9277777777778, N
137175, 381.0416666666667, N
137552, 382.0888888888889, N
137951, 383.1972222222222, N
138326, 384.2388888888889, N
138701, 385.28055555555557, N
139105, 386.40277777777777, N
139509, 387.525, N
139892, 388.5888888888889, N
140282, 389.6722222222222, N
140604, 390.56666666666666, V
141046, 391.7944444444444, N
141456, 392.93333333333334, N
141848, 394.02222222222224, N
142229, 395.0805555555556, N
142611, 396.14166666666665, N
142976, 397.15555555555557, N
143376, 398.26666666666665, N
143784, 399.4, N
144168, 400.46666666666664, N
144556, 401.5444444444444, N
144946, 402.6277777777778, N
145324, 403.6777777777778, N
145555, 404.31944444444446, V
146136, 405.93333333333334, N
146528, 407.02222222222224, N
146925, 408.125, N
147292, 409.14444444444445, N
147519, 409.775, V
148102, 411.39444444444445, N
148496, 412.4888888888889, N
148878, 413.55, N
149259, 414.60833333333335, N
149533, 415.36944444444447, V
150041, 416.78055555555557, N
150454, 417.9277777777778, N
150830, 418.97222222222223, N
151208, 420.02222222222224, N
151577, 421.0472222222222, N
151964, 422.1222222222222, N
152357, 423.2138888888889, N
152743, 424.2861111111111, N
153113, 425.31388888888887, N
153494, 426.3722222222222, N
153866, 427.40555555555557, N
154258, 428.49444444444447, N
154658, 429.60555555555555, N
154996, 430.5444444444444, V
155412, 431.7, N
155789, 432.7472222222222, N
156160, 433.77777777777777, N
156558, 434.8833333333333, N
156946, 435.9611111111111, N
157235, 436.7638888888889, |
157328, 437.02222222222224, N
157701, 438.05833333333334, N
158079, 439.10833333333335, N
158479, 440.21944444444443, N
158886, 441.35, N
159270, 442.4166666666667, N
159666, 443.51666666666665, N
160048, 444.5777777777778, N
160254, 445.15, V
160847, 446.7972222222222, N
161261, 447.9472222222222, N
161669, 449.0805555555556, N
162059, 450.1638888888889, N
162454, 451.2611111111111, N
162878, 452.43888888888887, N
163299, 453.60833333333335, N
163705, 454.7361111111111, N
164106, 455.85, N
164345, 456.5138888888889, V
164923, 458.11944444444447, N
165348, 459.3, N
165749, 460.4138888888889, N
166152, 461.53333333333336, N
166542, 462.6166666666667, N
166935, 463.7083333333333, N
167364, 464.9, N
167761, 466.0027777777778, N
168157, 467.10277777777776, N
168559, 468.21944444444443, N
168916, 469.2111111111111, F
169361, 470.4472222222222, N
169770, 471.5833333333333, N
170161, 472.6694444444444, N
170551, 473.7527777777778, N
170929, 474.8027777777778, N
171218, 475.60555555555555, V
171737, 477.0472222222222, N
172124, 478.1222222222222, N
172516, 479.2111111111111, N
172893, 480.2583333333333, N
173270, 481.30555555555554, N
173670, 482.4166666666667, N
174082, 483.56111111111113, N
174465, 484.625, N
174846, 485.68333333333334, N
175240, 486.77777777777777, N
175635, 487.875, N
176048, 489.02222222222224, N
176454, 490.15, N
176851, 491.2527777777778, N
177072, 491.8666666666667, V
177633, 493.425, N
178060, 494.6111111111111, N
178483, 495.7861111111111, N
178871, 496.8638888888889, N
179092, 497.47777777777776, V
179637, 498.9916666666667, N
180054, 500.15, N
180461, 501.28055555555557, N
180835, 502.31944444444446, N
181230, 503.4166666666667, N
181604, 504.4555555555556, N
181992, 505.53333333333336, N
182387, 506.63055555555553, N
182792, 507.75555555555553, N
183170, 508.80555555555554, N
183463, 509.61944444444447, V
183904, 510.84444444444443, N
184305, 511.9583333333333, N
184702, 513.0611111111111, N
185091, 514.1416666666667, N
185323, 514.7861111111112, V
185841, 516.225, N
186025, 516.7361111111111, V
186594, 518.3166666666667, N
186990, 519.4166666666666, N
187367, 520.4638888888888, N
187734, 521.4833333333333, N
188098, 522.4944444444444, N
188463, 523.5083333333333, N
188860, 524.6111111111111, N
189250, 525.6944444444445, N
189638, 526.7722222222222, N
190016, 527.8222222222222, N
190379, 528.8305555555555, N
190785, 529.9583333333334, N
191190, 531.0833333333334, N
191579, 532.1638888888889, N
191973, 533.2583333333333, N
192351, 534.3083333333333, N
192718, 535.3277777777778, N
193133, 536.4805555555556, N
193369, 537.1361111111111, V
193916, 538.6555555555556, N
194303, 539.7305555555556, N
194667, 540.7416666666667, N
195057, 541.825, N
195463, 542.9527777777778, N
195825, 543.9583333333334, N
196242, 545.1166666666667, N
196628, 546.1888888888889, N
196998, 547.2166666666667, N
197415, 548.375, N
197826, 549.5166666666667, N
198214, 550.5944444444444, N
198614, 551.7055555555555, N
198993, 552.7583333333333, N
199389, 553.8583333333333, N
199802, 555.0055555555556, N
200181, 556.0583333333333, F
200582, 557.1722222222222, N
200973, 558.2583333333333, N
201344, 559.2888888888889, N
201753, 560.425, N
202152, 561.5333333333333, N
202538, 562.6055555555556, N
202915, 563.6527777777778, N
203123, 564.2305555555556, V
203671, 565.7527777777777, N
204085, 566.9027777777778, N
204481, 568.0027777777777, N
204866, 569.0722222222222, N
205036, 569.5444444444445, V
205200, 570.0, ~
205596, 571.1, N
205998, 572.2166666666667, N
206385, 573.2916666666666, N
206762, 574.3388888888888, N
206945, 574.8472222222222, ~
207120, 575.3333333333334, N
207482, 576.3388888888888, N
207842, 577.3388888888888, N
208207, 578.3527777777778, N
208584, 579.4, N
208946, 580.4055555555556, N
209305, 581.4027777777778, N
209656, 582.3777777777777, N
210003, 583.3416666666667, N
210371, 584.3638888888889, N
210723, 585.3416666666667, N
211088, 586.3555555555556, N
211436, 587.3222222222222, N
211779, 588.275, N
212126, 589.2388888888889, N
212496, 590.2666666666667, N
212867, 591.2972222222222, N
213220, 592.2777777777778, N
213571, 593.2527777777777, N
213906, 594.1833333333333, N
214256, 595.1555555555556, N
214615, 596.1527777777778, N
214974, 597.15, N
215327, 598.1305555555556, N
215682, 599.1166666666667, N
216019, 600.0527777777778, N
216353, 600.9805555555556, N
216697, 601.9361111111111, N
217059, 602.9416666666667, N
217404, 603.9, N
217735, 604.8194444444445, N
218071, 605.7527777777777, N
218394, 606.65, N
218736, 607.6, N
219084, 608.5666666666667, N
219422, 609.5055555555556, N
219752, 610.4222222222222, N
220089, 611.3583333333333, N
220415, 612.2638888888889, N
220729, 613.1361111111111, N
221089, 614.1361111111111, N
221435, 615.0972222222222, N
221769, 616.025, N
222110, 616.9722222222222, N
222439, 617.8861111111111, N
222758, 618.7722222222222, N
223105, 619.7361111111111, N
223462, 620.7277777777778, N
223803, 621.675, N
224129, 622.5805555555555, N
224461, 623.5027777777777, N
224792, 624.4222222222222, N
225105, 625.2916666666666, N
225467, 626.2972222222222, N
225806, 627.2388888888889, N
226130, 628.1388888888889, N
226460, 629.0555555555555, N
226754, 629.8722222222223, N
227088, 630.8, N
227415, 631.7083333333334, N
227765, 632.6805555555555, N
228104, 633.6222222222223, N
228421, 634.5027777777777, N
228744, 635.4, N
229072, 636.3111111111111, N
229385, 637.1805555555555, N
229722, 638.1166666666667, N
230074, 639.0944444444444, N
230401, 640.0027777777777, N
230731, 640.9194444444445, N
231056, 641.8222222222222, N
231385, 642.7361111111111, N
231723, 643.675, N
232068, 644.6333333333333, N
232422, 645.6166666666667, N
232755, 646.5416666666666, N
233083, 647.4527777777778, N
233415, 648.375, N
233751, 649.3083333333333, N
234098, 650.2722222222222, N
234457, 651.2694444444444, N
234797, 652.2138888888888, N
235141, 653.1694444444445, N
235472, 654.0888888888888, N
235804, 655.0111111111111, N
236174, 656.0388888888889, N
236541, 657.0583333333333, N
236910, 658.0833333333334, N
237261, 659.0583333333333, N
237615, 660.0416666666666, N
237949, 660.9694444444444, N
238338, 662.05, N
238704, 663.0666666666667, N
239068, 664.0777777777778, N
239232, 664.5333333333333, ~
239428, 665.0777777777778, N
239769, 666.025, N
240107, 666.9638888888888, N
240479, 667.9972222222223, N
240663, 668.5083333333333, ~
240843, 669.0083333333333, N
241191, 669.975, N
241545, 670.9583333333334, N
241882, 671.8944444444444, N
242210, 672.8055555555555, N
242586, 673.85, N
242948, 674.8555555555556, N
243306, 675.85, N
243661, 676.8361111111111, N
244010, 677.8055555555555, N
244351, 678.7527777777777, N
244720, 679.7777777777778, N
245106, 680.85, N
245471, 681.8638888888889, N
245845, 682.9027777777778, N
246201, 683.8916666666667, N
246548, 684.8555555555556, N
246937, 685.9361111111111, N
247325, 687.0138888888889, N
247684, 688.0111111111111, N
248067, 689.075, N
248426, 690.0722222222222, N
248776, 691.0444444444445, N
249158, 692.1055555555556, N
249541, 693.1694444444445, N
249899, 694.1638888888889, N
250269, 695.1916666666667, N
250621, 696.1694444444445, N
250965, 697.125, N
251340, 698.1666666666666, N
251716, 699.2111111111111, N
251900, 699.7222222222222, +
251975, 699.9305555555555, A
252154, 700.4277777777778, A
252336, 700.9333333333333, A
252507, 701.4083333333333, A
252791, 702.1972222222222, A
252944, 702.6222222222223, V
253286, 703.5722222222222, J
253651, 704.5861111111111, +
253746, 704.85, N
254124, 705.9, N
254485, 706.9027777777778, N
254848, 707.9111111111112, N
255189, 708.8583333333333, N
255558, 709.8833333333333, N
255938, 710.9388888888889, N
256307, 711.9638888888888, N
256671, 712.975, N
257035, 713.9861111111111, N
257379, 714.9416666666667, N
257770, 716.0277777777778, N
258151, 717.0861111111111, N
258519, 718.1083333333333, N
258878, 719.1055555555556, N
259242, 720.1166666666667, N
259591, 721.0861111111111, N
259968, 722.1333333333333, N
260351, 723.1972222222222, N
260722, 724.2277777777778, N
261082, 725.2277777777778, N
261451, 726.2527777777777, N
261812, 727.2555555555556, N
262198, 728.3277777777778, N
262587, 729.4083333333333, N
262966, 730.4611111111111, N
263333, 731.4805555555556, N
263603, 732.2305555555556, V
264093, 733.5916666666667, N
264484, 734.6777777777778, N
264870, 735.75, N
265244, 736.7888888888889, N
265592, 737.7555555555556, F
265965, 738.7916666666666, N
266355, 739.875, N
266737, 740.9361111111111, N
267105, 741.9583333333334, N
267483, 743.0083333333333, N
267844, 744.0111111111111, N
268211, 745.0305555555556, N
268524, 745.9, V
268999, 747.2194444444444, N
269383, 748.2861111111112, N
269764, 749.3444444444444, N
270133, 750.3694444444444, N
270517, 751.4361111111111, N
270916, 752.5444444444445, N
271145, 753.1805555555555, V
271681, 754.6694444444445, N
272055, 755.7083333333334, N
272412, 756.7, N
272803, 757.7861111111112, N
273187, 758.8527777777778, N
273565, 759.9027777777778, N
273932, 760.9222222222222, N
274293, 761.925, N
274624, 762.8444444444444, N
275002, 763.8944444444444, N
275373, 764.925, N
275732, 765.9222222222222, N
276083, 766.8972222222222, N
276423, 767.8416666666667, N
276747, 768.7416666666667, N
277112, 769.7555555555556, N
277479, 770.775, N
277814, 771.7055555555555, N
278153, 772.6472222222222, N
278493, 773.5916666666667, N
278823, 774.5083333333333, N
279155, 775.4305555555555, N
279519, 776.4416666666667, N
279873, 777.425, N
280219, 778.3861111111111, N
280555, 779.3194444444445, N
280894, 780.2611111111111, N
281219, 781.1638888888889, N
281589, 782.1916666666667, N
281949, 783.1916666666667, N
282286, 784.1277777777777, N
282634, 785.0944444444444, N
282982, 786.0611111111111, N
283314, 786.9833333333333, N
283682, 788.0055555555556, N
284061, 789.0583333333333, N
284418, 790.05, N
284773, 791.0361111111112, N
285127, 792.0194444444444, N
285465, 792.9583333333334, N
285829, 793.9694444444444, N
286209, 795.025, N
286557, 795.9916666666667, N
286914, 796.9833333333333, N
287260, 797.9444444444445, N
287598, 798.8833333333333, N
287961, 799.8916666666667, N
288337, 800.9361111111111, N
288688, 801.9111111111112, N
289032, 802.8666666666667, N
289372, 803.8111111111111, N
289707, 804.7416666666667, N
290061, 805.725, N
290425, 806.7361111111111, N
290780, 807.7222222222222, N
291130, 808.6944444444445, N
291470, 809.6388888888889, N
291815, 810.5972222222222, N
292172, 811.5888888888888, N
292531, 812.5861111111111, N
292909, 813.6361111111111, N
293258, 814.6055555555556, N
293601, 815.5583333333333, N
293953, 816.5361111111112, N
294309, 817.525, N
294676, 818.5444444444445, N
295044, 819.5666666666667, N
295403, 820.5638888888889, N
295749, 821.525, N
296093, 822.4805555555556, N
296374, 823.2611111111111, V
296833, 824.5361111111112, N
297213, 825.5916666666667, N
297582, 826.6166666666667, N
297936, 827.6, N
298295, 828.5972222222222, N
298650, 829.5833333333334, N
299043, 830.675, N
299411, 831.6972222222222, N
299778, 832.7166666666667, N
300130, 833.6944444444445, N
300482, 834.6722222222222, N
300854, 835.7055555555555, N
301244, 836.7888888888889, N
301538, 837.6055555555556, V
301990, 838.8611111111111, N
302347, 839.8527777777778, N
302699, 840.8305555555555, N
303078, 841.8833333333333, N
303467, 842.9638888888888, N
303828, 843.9666666666667, N
304207, 845.0194444444444, N
304560, 846.0, N
304908, 846.9666666666667, N
305146, 847.6277777777777, V
305669, 849.0805555555555, N
306030, 850.0833333333334, N
306399, 851.1083333333333, N
306751, 852.0861111111111, N
307091, 853.0305555555556, N
307471, 854.0861111111111, N
307850, 855.1388888888889, N
308204, 856.1222222222223, N
308571, 857.1416666666667, N
308918, 858.1055555555556, N
309248, 859.0222222222222, N
309610, 860.0277777777778, N
309982, 861.0611111111111, N
310328, 862.0222222222222, N
310689, 863.025, N
311042, 864.0055555555556, N
311367, 864.9083333333333, N
311739, 865.9416666666667, N
312117, 866.9916666666667, N
312466, 867.9611111111111, N
312824, 868.9555555555555, N
313174, 869.9277777777778, N
313513, 870.8694444444444, N
313879, 871.8861111111111, N
314260, 872.9444444444445, N
314626, 873.9611111111111, N
314985, 874.9583333333334, N
315338, 875.9388888888889, N
315673, 876.8694444444444, N
316051, 877.9194444444445, N
316421, 878.9472222222222, N
316783, 879.9527777777778, N
317139, 880.9416666666667, N
317494, 881.9277777777778, N
317835, 882.875, N
318193, 883.8694444444444, N
318562, 884.8944444444444, N
318919, 885.8861111111111, N
319261, 886.8361111111111, N
319605, 887.7916666666666, N
319936, 888.7111111111111, N
320290, 889.6944444444445, N
320660, 890.7222222222222, N
321017, 891.7138888888888, N
321358, 892.6611111111112, N
321697, 893.6027777777778, N
322038, 894.55, N
322375, 895.4861111111111, N
322737, 896.4916666666667, N
323095, 897.4861111111111, N
323443, 898.4527777777778, N
323781, 899.3916666666667, N
324111, 900.3083333333333, N
324461, 901.2805555555556, N
324815, 902.2638888888889, N
325175, 903.2638888888889, N
325512, 904.2, N
325856, 905.1555555555556, N
326195, 906.0972222222222, N
326526, 907.0166666666667, N
326896, 908.0444444444445, N
327248, 909.0222222222222, N
327587, 909.9638888888888, N
327941, 910.9472222222222, N
328272, 911.8666666666667, N
328601, 912.7805555555556, N
328981, 913.8361111111111, N
329348, 914.8555555555556, N
329702, 915.8388888888888, N
330055, 916.8194444444445, N
330404, 917.7888888888889, N
330739, 918.7194444444444, N
331120, 919.7777777777778, N
331493, 920.8138888888889, N
331846, 921.7944444444445, N
332189, 922.7472222222223, N
332531, 923.6972222222222, N
332862, 924.6166666666667, N
333209, 925.5805555555555, N
333580, 926.6111111111111, N
333932, 927.5888888888888, N
334275, 928.5416666666666, N
334623, 929.5083333333333, N
334965, 930.4583333333334, N
335301, 931.3916666666667, N
335677, 932.4361111111111, N
336031, 933.4194444444445, N
336376, 934.3777777777777, N
336719, 935.3305555555555, N
337058, 936.2722222222222, N
337390, 937.1944444444445, N
337771, 938.2527777777777, N
338130, 939.25, N
338474, 940.2055555555555, N
338821, 941.1694444444445, N
339168, 942.1333333333333, N
339500, 943.0555555555555, N
339869, 944.0805555555555, N
340237, 945.1027777777778, N
340566, 946.0166666666667, N
340910, 946.9722222222222, N
341244, 947.9, N
341563, 948.7861111111112, N
341910, 949.75, N
342270, 950.75, N
342618, 951.7166666666667, N
342947, 952.6305555555556, N
343282, 953.5611111111111, N
343626, 954.5166666666667, N
343965, 955.4583333333334, N
344338, 956.4944444444444, N
344700, 957.5, N
345037, 958.4361111111111, N
345379, 959.3861111111111, N
345721, 960.3361111111111, N
346064, 961.2888888888889, N
346420, 962.2777777777778, N
346789, 963.3027777777778, N
347129, 964.2472222222223, N
347473, 965.2027777777778, N
347815, 966.1527777777778, N
348139, 967.0527777777778, N
348502, 968.0611111111111, N
348877, 969.1027777777778, N
349227, 970.075, N
349574, 971.0388888888889, N
349915, 971.9861111111111, N
350256, 972.9333333333333, N
350627, 973.9638888888888, N
350985, 974.9583333333334, N
351341, 975.9472222222222, N
351682, 976.8944444444444, N
352023, 977.8416666666667, N
352345, 978.7361111111111, N
352702, 979.7277777777778, N
353062, 980.7277777777778, N
353414, 981.7055555555555, N
353760, 982.6666666666666, N
354086, 983.5722222222222, N
354272, 984.0888888888888, V
354756, 985.4333333333333, N
355043, 986.2305555555556, A
355441, 987.3361111111111, N
355778, 988.2722222222222, N
355971, 988.8083333333333, V
356430, 990.0833333333334, N
356743, 990.9527777777778, N
357102, 991.95, N
357441, 992.8916666666667, N
357767, 993.7972222222222, N
358105, 994.7361111111111, N
358421, 995.6138888888889, N
358739, 996.4972222222223, N
359070, 997.4166666666666, N
359429, 998.4138888888889, N
359773, 999.3694444444444, N
360100, 1000.2777777777778, N
360435, 1001.2083333333334, N
360760, 1002.1111111111111, N
361079, 1002.9972222222223, N
361431, 1003.975, N
361782, 1004.95, N
362114, 1005.8722222222223, N
362459, 1006.8305555555555, N
362793, 1007.7583333333333, N
363114, 1008.65, N
363463, 1009.6194444444444, N
363834, 1010.65, N
364191, 1011.6416666666667, N
364529, 1012.5805555555555, N
364878, 1013.55, N
365212, 1014.4777777777778, N
365552, 1015.4222222222222, N
365912, 1016.4222222222222, N
366267, 1017.4083333333333, N
366603, 1018.3416666666667, N
366946, 1019.2944444444445, N
367284, 1020.2333333333333, N
367606, 1021.1277777777777, N
367967, 1022.1305555555556, N
368338, 1023.1611111111112, N
368674, 1024.0944444444444, N
369019, 1025.0527777777777, N
369364, 1026.0111111111112, N
369685, 1026.9027777777778, N
370046, 1027.9055555555556, N
370403, 1028.8972222222221, N
370746, 1029.85, N
371079, 1030.775, N
371416, 1031.7111111111112, N
371737, 1032.6027777777779, N
372064, 1033.5111111111112, N
372412, 1034.4777777777779, N
372760, 1035.4444444444443, N
373083, 1036.3416666666667, N
373411, 1037.2527777777777, N
373740, 1038.1666666666667, N
374049, 1039.025, N
374398, 1039.9944444444445, N
374735, 1040.9305555555557, N
375068, 1041.8555555555556, N
375395, 1042.763888888889, N
375722, 1043.6722222222222, N
376050, 1044.5833333333333, N
376385, 1045.513888888889, N
376738, 1046.4944444444445, N
377093, 1047.4805555555556, N
377432, 1048.4222222222222, N
377768, 1049.3555555555556, N
378106, 1050.2944444444445, N
378433, 1051.2027777777778, N
378783, 1052.175, N
379129, 1053.1361111111112, N
379482, 1054.1166666666666, N
379814, 1055.0388888888888, N
380137, 1055.9361111111111, N
380467, 1056.8527777777779, N
380813, 1057.8138888888889, N
381162, 1058.7833333333333, N
381508, 1059.7444444444445, N
381845, 1060.6805555555557, N
382173, 1061.5916666666667, N
382506, 1062.5166666666667, N
382853, 1063.4805555555556, N
383201, 1064.4472222222223, N
383549, 1065.4138888888888, N
383891, 1066.3638888888888, N
384220, 1067.2777777777778, N
384551, 1068.1972222222223, N
384887, 1069.1305555555555, N
385239, 1070.1083333333333, N
385589, 1071.0805555555555, N
385915, 1071.986111111111, N
386265, 1072.9583333333333, N
386595, 1073.875, N
386910, 1074.75, N
387279, 1075.775, N
387631, 1076.7527777777777, N
387980, 1077.7222222222222, N
388320, 1078.6666666666667, N
388658, 1079.6055555555556, N
388983, 1080.5083333333334, N
389327, 1081.463888888889, N
389700, 1082.5, N
390046, 1083.4611111111112, N
390381, 1084.3916666666667, N
390722, 1085.338888888889, N
391054, 1086.2611111111112, N
391378, 1087.161111111111, N
391749, 1088.1916666666666, N
392094, 1089.15, N
392421, 1090.0583333333334, N
392751, 1090.975, N
393091, 1091.9194444444445, N
393406, 1092.7944444444445, N
393759, 1093.775, N
394126, 1094.7944444444445, N
394463, 1095.7305555555556, N
394801, 1096.6694444444445, N
395139, 1097.6083333333333, N
395476, 1098.5444444444445, N
395824, 1099.5111111111112, N
396202, 1100.5611111111111, N
396556, 1101.5444444444445, N
396888, 1102.4666666666667, N
397226, 1103.4055555555556, N
397562, 1104.338888888889, N
397886, 1105.2388888888888, N
398237, 1106.213888888889, N
398592, 1107.2, N
398916, 1108.1, N
399249, 1109.025, N
399574, 1109.9277777777777, N
399890, 1110.8055555555557, N
400236, 1111.7666666666667, N
400592, 1112.7555555555555, N
400934, 1113.7055555555555, N
401255, 1114.5972222222222, N
401579, 1115.4972222222223, N
401910, 1116.4166666666667, N
402233, 1117.3138888888889, N
402569, 1118.2472222222223, N
402919, 1119.2194444444444, N
403244, 1120.1222222222223, N
403573, 1121.036111111111, N
403899, 1121.9416666666666, N
404225, 1122.8472222222222, N
404570, 1123.8055555555557, N
404926, 1124.7944444444445, N
405278, 1125.7722222222221, N
405610, 1126.6944444444443, N
405942, 1127.6166666666666, N
406271, 1128.5305555555556, N
406604, 1129.4555555555555, N
406949, 1130.4138888888888, N
407298, 1131.3833333333334, N
407624, 1132.2888888888888, N
407946, 1133.1833333333334, N
408270, 1134.0833333333333, N
408593, 1134.9805555555556, N
408943, 1135.9527777777778, N
409284, 1136.9, N
409624, 1137.8444444444444, N
409956, 1138.7666666666667, N
410282, 1139.6722222222222, N
410602, 1140.5611111111111, N
410945, 1141.513888888889, N
411288, 1142.4666666666667, N
411627, 1143.4083333333333, N
411956, 1144.3222222222223, N
412275, 1145.2083333333333, N
412596, 1146.1, N
412912, 1146.9777777777779, N
413264, 1147.9555555555555, N
413611, 1148.9194444444445, N
413952, 1149.8666666666666, N
414294, 1150.8166666666666, N
414624, 1151.7333333333333, N
414943, 1152.6194444444445, N
415303, 1153.6194444444445, N
415666, 1154.6277777777777, N
416004, 1155.5666666666666, N
416350, 1156.5277777777778, N
416677, 1157.4361111111111, N
417000, 1158.3333333333333, N
417325, 1159.236111111111, N
417690, 1160.25, N
418029, 1161.1916666666666, N
418358, 1162.1055555555556, N
418697, 1163.0472222222222, N
419023, 1163.9527777777778, N
419336, 1164.8222222222223, N
419689, 1165.8027777777777, N
420046, 1166.7944444444445, N
420376, 1167.7111111111112, N
420710, 1168.638888888889, N
421042, 1169.5611111111111, N
421360, 1170.4444444444443, N
421695, 1171.375, N
422040, 1172.3333333333333, N
422389, 1173.3027777777777, N
422710, 1174.1944444444443, N
423050, 1175.138888888889, N
423372, 1176.0333333333333, N
423683, 1176.8972222222221, N
424030, 1177.861111111111, N
424379, 1178.8305555555555, N
424716, 1179.7666666666667, N
425047, 1180.6861111111111, N
425383, 1181.6194444444445, N
425709, 1182.525, N
426045, 1183.4583333333333, N
426405, 1184.4583333333333, N
426766, 1185.4611111111112, N
427100, 1186.388888888889, N
427440, 1187.3333333333333, N
427775, 1188.263888888889, N
428101, 1189.1694444444445, N
428453, 1190.1472222222221, N
428801, 1191.1138888888888, N
429139, 1192.0527777777777, N
429468, 1192.9666666666667, N
429805, 1193.9027777777778, N
430123, 1194.786111111111, N
430465, 1195.736111111111, N
430818, 1196.7166666666667, N
431163, 1197.675, N
431493, 1198.5916666666667, N
431821, 1199.5027777777777, N
432148, 1200.411111111111, N
432478, 1201.3277777777778, N
432828, 1202.3, N
433170, 1203.25, N
433509, 1204.1916666666666, N
433834, 1205.0944444444444, N
434168, 1206.0222222222221, N
434493, 1206.925, N
434605, 1207.236111111111, ~
434832, 1207.8666666666666, N
435182, 1208.838888888889, N
435523, 1209.786111111111, N
435849, 1210.6916666666666, N
435972, 1211.0333333333333, ~
436165, 1211.5694444444443, N
436489, 1212.4694444444444, N
436810, 1213.361111111111, N
437148, 1214.3, N
437488, 1215.2444444444445, N
437815, 1216.1527777777778, N
438134, 1217.0388888888888, N
438452, 1217.9222222222222, N
438767, 1218.7972222222222, N
439109, 1219.7472222222223, N
439456, 1220.7111111111112, N
439790, 1221.638888888889, N
440129, 1222.5805555555555, N
440452, 1223.4777777777779, N
440786, 1224.4055555555556, N
441127, 1225.3527777777779, N
441474, 1226.3166666666666, N
441828, 1227.3, N
442165, 1228.236111111111, N
442508, 1229.1888888888889, N
442844, 1230.1222222222223, N
443182, 1231.0611111111111, N
443544, 1232.0666666666666, N
443907, 1233.075, N
444245, 1234.013888888889, N
444589, 1234.9694444444444, N
444920, 1235.888888888889, N
445232, 1236.7555555555555, N
445582, 1237.7277777777779, N
445922, 1238.6722222222222, N
446263, 1239.6194444444445, N
446585, 1240.513888888889, N
446909, 1241.4138888888888, N
447228, 1242.3, N
447540, 1243.1666666666667, N
447891, 1244.1416666666667, N
448223, 1245.0638888888889, N
448543, 1245.9527777777778, N
448862, 1246.838888888889, N
449175, 1247.7083333333333, N
449471, 1248.5305555555556, N
449789, 1249.4138888888888, N
450124, 1250.3444444444444, N
450440, 1251.2222222222222, N
450745, 1252.0694444444443, N
451045, 1252.9027777777778, N
451349, 1253.7472222222223, N
451632, 1254.5333333333333, N
451930, 1255.361111111111, N
452272, 1256.3111111111111, N
452587, 1257.1861111111111, N
452886, 1258.0166666666667, N
453194, 1258.8722222222223, N
453497, 1259.713888888889, N
453798, 1260.55, N
454110, 1261.4166666666667, N
454451, 1262.3638888888888, N
454785, 1263.2916666666667, N
455089, 1264.1361111111112, N
455400, 1265.0, N
455713, 1265.8694444444445, N
456008, 1266.6888888888889, N
456337, 1267.6027777777779, N
456676, 1268.5444444444445, N
457006, 1269.4611111111112, N
457316, 1270.3222222222223, N
457624, 1271.1777777777777, N
457938, 1272.05, N
458248, 1272.911111111111, N
458574, 1273.8166666666666, N
458916, 1274.7666666666667, N
459246, 1275.6833333333334, N
459552, 1276.5333333333333, N
459861, 1277.3916666666667, N
460175, 1278.263888888889, N
460486, 1279.1277777777777, N
460822, 1280.0611111111111, N
461159, 1280.9972222222223, N
461477, 1281.8805555555555, N
461794, 1282.7611111111112, N
462102, 1283.6166666666666, N
462413, 1284.4805555555556, N
462731, 1285.3638888888888, N
463054, 1286.2611111111112, N
463400, 1287.2222222222222, N
463715, 1288.0972222222222, N
464029, 1288.9694444444444, N
464343, 1289.8416666666667, N
464648, 1290.6888888888889, N
464978, 1291.6055555555556, N
465297, 1292.4916666666666, N
465627, 1293.4083333333333, N
465937, 1294.2694444444444, N
466237, 1295.1027777777779, N
466535, 1295.9305555555557, N
466839, 1296.775, N
467161, 1297.6694444444445, N
467476, 1298.5444444444445, N
467813, 1299.4805555555556, N
468117, 1300.325, N
468417, 1301.1583333333333, N
468723, 1302.0083333333334, N
469014, 1302.8166666666666, N
469346, 1303.7388888888888, N
469662, 1304.6166666666666, N
469990, 1305.5277777777778, N
470299, 1306.3861111111112, N
470594, 1307.2055555555555, N
470901, 1308.0583333333334, N
471196, 1308.8777777777777, N
471524, 1309.7888888888888, N
471855, 1310.7083333333333, N
472179, 1311.6083333333333, N
472491, 1312.475, N
472800, 1313.3333333333333, N
473110, 1314.1944444444443, N
473421, 1315.0583333333334, N
473761, 1316.0027777777777, N
474091, 1316.9194444444445, N
474421, 1317.8361111111112, N
474755, 1318.763888888889, N
475061, 1319.6138888888888, N
475377, 1320.4916666666666, N
475710, 1321.4166666666667, N
476052, 1322.3666666666666, N
476391, 1323.3083333333334, N
476720, 1324.2222222222222, N
477039, 1325.1083333333333, N
477355, 1325.986111111111, N
477658, 1326.8277777777778, N
477995, 1327.763888888889, N
478336, 1328.7111111111112, N
478661, 1329.6138888888888, N
478981, 1330.5027777777777, N
479300, 1331.388888888889, N
479607, 1332.2416666666666, N
479913, 1333.0916666666667, N
480254, 1334.0388888888888, N
480587, 1334.963888888889, N
480900, 1335.8333333333333, N
481222, 1336.7277777777779, N
481541, 1337.6138888888888, N
481840, 1338.4444444444443, N
482149, 1339.3027777777777, N
482478, 1340.2166666666667, N
482809, 1341.1361111111112, N
483125, 1342.013888888889, N
483439, 1342.8861111111112, N
483753, 1343.7583333333334, N
484052, 1344.588888888889, N
484378, 1345.4944444444445, N
484707, 1346.4083333333333, N
485032, 1347.3111111111111, N
485338, 1348.161111111111, N
485647, 1349.0194444444444, N
485959, 1349.8861111111112, N
486251, 1350.6972222222223, N
486574, 1351.5944444444444, N
486905, 1352.513888888889, N
487237, 1353.4361111111111, N
487541, 1354.2805555555556, N
487845, 1355.125, N
488155, 1355.986111111111, N
488452, 1356.8111111111111, N
488783, 1357.7305555555556, N
489111, 1358.6416666666667, N
489441, 1359.5583333333334, N
489752, 1360.4222222222222, N
490055, 1361.263888888889, N
490369, 1362.1361111111112, N
490668, 1362.9666666666667, N
490997, 1363.8805555555555, N
491314, 1364.7611111111112, N
491645, 1365.6805555555557, N
491952, 1366.5333333333333, N
492255, 1367.375, N
492569, 1368.2472222222223, N
492870, 1369.0833333333333, N
493201, 1370.0027777777777, N
493528, 1370.911111111111, N
493840, 1371.7777777777778, N
494159, 1372.6638888888888, N
494457, 1373.4916666666666, N
494765, 1374.3472222222222, N
495068, 1375.1888888888889, N
495395, 1376.0972222222222, N
495712, 1376.9777777777779, N
496035, 1377.875, N
496345, 1378.736111111111, N
496638, 1379.55, N
496960, 1380.4444444444443, N
497271, 1381.3083333333334, N
497603, 1382.2305555555556, N
497928, 1383.1333333333334, N
498249, 1384.025, N
498559, 1384.8861111111112, N
498855, 1385.7083333333333, N
499163, 1386.5638888888889, N
499484, 1387.4555555555555, N
499800, 1388.3333333333333, N
500119, 1389.2194444444444, N
500424, 1390.0666666666666, N
500727, 1390.9083333333333, N
501028, 1391.7444444444445, N
501326, 1392.5722222222223, N
501647, 1393.463888888889, N
501962, 1394.338888888889, N
502274, 1395.2055555555555, N
502581, 1396.0583333333334, N
502892, 1396.9222222222222, N
503188, 1397.7444444444445, N
503483, 1398.5638888888889, N
503813, 1399.4805555555556, N
504132, 1400.3666666666666, N
504457, 1401.2694444444444, N
504762, 1402.1166666666666, N
505070, 1402.9722222222222, N
505375, 1403.8194444444443, N
505676, 1404.6555555555556, N
506004, 1405.5666666666666, N
506337, 1406.4916666666666, N
506661, 1407.3916666666667, N
506968, 1408.2444444444445, N
507285, 1409.125, N
507584, 1409.9555555555555, N
507879, 1410.775, N
508216, 1411.7111111111112, N
508535, 1412.5972222222222, N
508854, 1413.4833333333333, N
509162, 1414.338888888889, N
509480, 1415.2222222222222, N
509780, 1416.0555555555557, N
510075, 1416.875, N
510430, 1417.861111111111, N
510766, 1418.7944444444445, N
511090, 1419.6944444444443, N
511418, 1420.6055555555556, N
511738, 1421.4944444444445, N
512053, 1422.3694444444445, N
512364, 1423.2333333333333, N
512722, 1424.2277777777779, N
513060, 1425.1666666666667, N
513380, 1426.0555555555557, N
513708, 1426.9666666666667, N
514039, 1427.8861111111112, N
514342, 1428.7277777777779, N
514679, 1429.6638888888888, N
515034, 1430.65, N
515348, 1431.5222222222221, N
515662, 1432.3944444444444, N
515966, 1433.2388888888888, N
516277, 1434.1027777777779, N
516569, 1434.9138888888888, N
516886, 1435.7944444444445, N
517226, 1436.7388888888888, N
517534, 1437.5944444444444, N
517835, 1438.4305555555557, N
518136, 1439.2666666666667, N
518437, 1440.1027777777779, N
518733, 1440.925, N
519051, 1441.8083333333334, N
519384, 1442.7333333333333, N
519702, 1443.6166666666666, N
520004, 1444.4555555555555, N
520303, 1445.286111111111, N
520616, 1446.1555555555556, N
520920, 1447.0, N
521242, 1447.8944444444444, N
521579, 1448.8305555555555, N
521898, 1449.7166666666667, N
522204, 1450.5666666666666, N
522507, 1451.4083333333333, N
522820, 1452.2777777777778, N
523121, 1453.1138888888888, N
523445, 1454.013888888889, N
523779, 1454.9416666666666, N
524087, 1455.7972222222222, N
524398, 1456.661111111111, N
524705, 1457.513888888889, N
525012, 1458.3666666666666, N
525323, 1459.2305555555556, N
525648, 1460.1333333333334, N
525979, 1461.0527777777777, N
526292, 1461.9222222222222, N
526601, 1462.7805555555556, N
526911, 1463.6416666666667, N
527213, 1464.4805555555556, N
527545, 1465.4027777777778, N
527880, 1466.3333333333333, N
528223, 1467.286111111111, N
528541, 1468.1694444444445, N
528849, 1469.025, N
529160, 1469.888888888889, N
529459, 1470.7194444444444, N
529788, 1471.6333333333334, N
530101, 1472.5027777777777, N
530431, 1473.4194444444445, N
530740, 1474.2777777777778, N
531037, 1475.1027777777779, N
531342, 1475.95, N
531638, 1476.7722222222221, N
531965, 1477.6805555555557, N
532291, 1478.5861111111112, N
532613, 1479.4805555555556, N
532929, 1480.3583333333333, N
533225, 1481.1805555555557, N
533534, 1482.0388888888888, N
533828, 1482.8555555555556, N
534159, 1483.775, N
534492, 1484.7, N
534808, 1485.5777777777778, N
535128, 1486.4666666666667, N
535440, 1487.3333333333333, N
535745, 1488.1805555555557, N
536055, 1489.0416666666667, N
536401, 1490.0027777777777, N
536724, 1490.9, N
537049, 1491.8027777777777, N
537382, 1492.7277777777779, N
537685, 1493.5694444444443, N
537996, 1494.4333333333334, N
538320, 1495.3333333333333, N
538659, 1496.275, N
538988, 1497.1888888888889, N
539310, 1498.0833333333333, N
539638, 1498.9944444444445, N
539955, 1499.875, N
540260, 1500.7222222222222, N
540603, 1501.675, N
540947, 1502.6305555555555, N
541278, 1503.55, N
541607, 1504.463888888889, N
541925, 1505.3472222222222, N
542241, 1506.225, N
542553, 1507.0916666666667, N
542886, 1508.0166666666667, N
543228, 1508.9666666666667, N
543544, 1509.8444444444444, N
543867, 1510.7416666666666, N
544188, 1511.6333333333334, N
544493, 1512.4805555555556, N
544817, 1513.3805555555555, N
545158, 1514.3277777777778, N
545497, 1515.2694444444444, N
545801, 1516.1138888888888, N
546124, 1517.0111111111112, N
546435, 1517.875, N
546722, 1518.6722222222222, N
547051, 1519.5861111111112, N
547379, 1520.4972222222223, N
547696, 1521.3777777777777, N
547994, 1522.2055555555555, N
548291, 1523.0305555555556, N
548597, 1523.8805555555555, N
548880, 1524.6666666666667, N
549197, 1525.5472222222222, N
549523, 1526.4527777777778, N
549845, 1527.3472222222222, N
550144, 1528.1777777777777, N
550447, 1529.0194444444444, N
550756, 1529.8777777777777, N
551053, 1530.7027777777778, N
551369, 1531.5805555555555, N
551698, 1532.4944444444445, N
552027, 1533.4083333333333, N
552338, 1534.2722222222221, N
552645, 1535.125, N
552966, 1536.0166666666667, N
553272, 1536.8666666666666, N
553600, 1537.7777777777778, N
553931, 1538.6972222222223, N
554259, 1539.6083333333333, N
554568, 1540.4666666666667, N
554869, 1541.3027777777777, N
555186, 1542.1833333333334, N
555481, 1543.0027777777777, N
555799, 1543.8861111111112, N
556124, 1544.7888888888888, N
556439, 1545.6638888888888, N
556745, 1546.513888888889, N
557048, 1547.3555555555556, N
557354, 1548.2055555555555, N
557652, 1549.0333333333333, N
557972, 1549.9222222222222, N
558288, 1550.8, N
558600, 1551.6666666666667, N
558910, 1552.5277777777778, N
559198, 1553.3277777777778, N
559508, 1554.1888888888889, N
559804, 1555.0111111111112, N
560110, 1555.861111111111, N
560426, 1556.7388888888888, N
560728, 1557.5777777777778, N
561037, 1558.4361111111111, N
561323, 1559.2305555555556, N
561622, 1560.0611111111111, N
561914, 1560.8722222222223, N
562217, 1561.713888888889, N
562531, 1562.5861111111112, N
562832, 1563.4222222222222, N
563124, 1564.2333333333333, N
563415, 1565.0416666666667, N
563700, 1565.8333333333333, N
563985, 1566.625, N
564290, 1567.4722222222222, N
564586, 1568.2944444444445, N
564890, 1569.138888888889, N
565186, 1569.9611111111112, N
565479, 1570.775, N
565769, 1571.5805555555555, N
566059, 1572.3861111111112, N
566360, 1573.2222222222222, N
566673, 1574.0916666666667, N
566986, 1574.9611111111112, N
567284, 1575.7888888888888, N
567591, 1576.6416666666667, N
567879, 1577.4416666666666, N
568168, 1578.2444444444445, N
568470, 1579.0833333333333, N
568792, 1579.9777777777779, N
569104, 1580.8444444444444, N
569413, 1581.7027777777778, N
569735, 1582.5972222222222, N
570037, 1583.4361111111111, N
570338, 1584.2722222222221, N
570652, 1585.1444444444444, N
570980, 1586.0555555555557, N
571293, 1586.925, N
571589, 1587.7472222222223, N
571890, 1588.5833333333333, N
572191, 1589.4194444444445, N
572476, 1590.2111111111112, N
572769, 1591.025, N
573103, 1591.9527777777778, N
573417, 1592.825, N
573716, 1593.6555555555556, N
574029, 1594.525, N
574333, 1595.3694444444445, N
574629, 1596.1916666666666, N
574928, 1597.0222222222221, N
575268, 1597.9666666666667, N
575526, 1598.6833333333334, A
575888, 1599.6888888888889, N
576218, 1600.6055555555556, N
576526, 1601.4611111111112, N
576829, 1602.3027777777777, N
577119, 1603.1083333333333, N
577453, 1604.036111111111, N
577726, 1604.7944444444445, A
578064, 1605.7333333333333, N
578375, 1606.5972222222222, N
578666, 1607.4055555555556, N
578960, 1608.2222222222222, N
579242, 1609.0055555555555, N
579549, 1609.8583333333333, N
579868, 1610.7444444444445, N
580161, 1611.5583333333334, N
580372, 1612.1444444444444, A
580704, 1613.0666666666666, N
580997, 1613.8805555555555, N
581264, 1614.6222222222223, N
581563, 1615.4527777777778, N
581870, 1616.3055555555557, N
582167, 1617.1305555555555, N
582447, 1617.9083333333333, N
582736, 1618.7111111111112, N
583017, 1619.4916666666666, N
583306, 1620.2944444444445, N
583593, 1621.0916666666667, N
583896, 1621.9333333333334, N
584211, 1622.8083333333334, N
584505, 1623.625, N
584795, 1624.4305555555557, N
585086, 1625.2388888888888, N
585374, 1626.0388888888888, N
585664, 1626.8444444444444, N
585973, 1627.7027777777778, N
586282, 1628.5611111111111, N
586598, 1629.4388888888889, N
586886, 1630.2388888888888, N
587179, 1631.0527777777777, N
587473, 1631.8694444444445, N
587764, 1632.6777777777777, N
588066, 1633.5166666666667, N
588384, 1634.4, N
588700, 1635.2777777777778, N
588996, 1636.1, N
589299, 1636.9416666666666, N
589603, 1637.786111111111, N
589905, 1638.625, N
590237, 1639.5472222222222, N
590565, 1640.4583333333333, N
590907, 1641.4083333333333, N
591227, 1642.2972222222222, N
591533, 1643.1472222222221, N
591851, 1644.0305555555556, N
592166, 1644.9055555555556, N
592496, 1645.8222222222223, N
592824, 1646.7333333333333, N
593148, 1647.6333333333334, N
593461, 1648.5027777777777, N
593768, 1649.3555555555556, N
594066, 1650.1833333333334, N
594379, 1651.0527777777777, N
594701, 1651.9472222222223, N
595013, 1652.8138888888889, N
595329, 1653.6916666666666, N
595635, 1654.5416666666667, N
595935, 1655.375, N
596244, 1656.2333333333333, N
596551, 1657.0861111111112, N
596882, 1658.0055555555555, N
597210, 1658.9166666666667, N
597529, 1659.8027777777777, N
597845, 1660.6805555555557, N
598138, 1661.4944444444445, N
598436, 1662.3222222222223, N
598747, 1663.1861111111111, N
599059, 1664.0527777777777, N
599369, 1664.9138888888888, N
599674, 1665.7611111111112, N
599967, 1666.575, N
600256, 1667.3777777777777, N
600545, 1668.1805555555557, N
600825, 1668.9583333333333, N
601147, 1669.8527777777779, N
601451, 1670.6972222222223, N
601758, 1671.55, N
602055, 1672.375, N
602355, 1673.2083333333333, N
602653, 1674.036111111111, N
602938, 1674.8277777777778, N
603274, 1675.7611111111112, N
603606, 1676.6833333333334, N
603917, 1677.5472222222222, N
604242, 1678.45, N
604555, 1679.3194444444443, N
604856, 1680.1555555555556, N
605160, 1681.0, N
605514, 1681.9833333333333, N
605844, 1682.9, N
606148, 1683.7444444444445, N
606470, 1684.638888888889, N
606779, 1685.4972222222223, N
607081, 1686.3361111111112, N
607391, 1687.1972222222223, N
607725, 1688.125, N
608062, 1689.0611111111111, N
608372, 1689.9222222222222, N
608695, 1690.8194444444443, N
609009, 1691.6916666666666, N
609299, 1692.4972222222223, N
609625, 1693.4027777777778, N
609958, 1694.3277777777778, N
610278, 1695.2166666666667, N
610582, 1696.0611111111111, N
610897, 1696.9361111111111, N
611195, 1697.763888888889, N
611491, 1698.5861111111112, N
611813, 1699.4805555555556, N
612131, 1700.3638888888888, N
612459, 1701.275, N
612757, 1702.1027777777779, N
613062, 1702.95, N
613368, 1703.8, N
613658, 1704.6055555555556, N
613978, 1705.4944444444445, N
614303, 1706.3972222222221, N
614626, 1707.2944444444445, N
614920, 1708.111111111111, N
615228, 1708.9666666666667, N
615533, 1709.8138888888889, N
615819, 1710.6083333333333, N
616130, 1711.4722222222222, N
616451, 1712.3638888888888, N
616781, 1713.2805555555556, N
617082, 1714.1166666666666, N
617389, 1714.9694444444444, N
617700, 1715.8333333333333, N
617980, 1716.611111111111, N
618296, 1717.4888888888888, N
618619, 1718.3861111111112, N
618931, 1719.2527777777777, N
619231, 1720.0861111111112, N
619520, 1720.888888888889, N
619821, 1721.725, N
620104, 1722.5111111111112, N
620398, 1723.3277777777778, N
620705, 1724.1805555555557, N
621022, 1725.0611111111111, N
621315, 1725.875, N
621605, 1726.6805555555557, N
621896, 1727.4888888888888, N
622190, 1728.3055555555557, N
622483, 1729.1194444444445, N
622805, 1730.013888888889, N
623114, 1730.8722222222223, N
623422, 1731.7277777777779, N
623722, 1732.5611111111111, N
624014, 1733.3722222222223, N
624314, 1734.2055555555555, N
624602, 1735.0055555555555, N
624909, 1735.8583333333333, N
625218, 1736.7166666666667, N
625522, 1737.5611111111111, N
625821, 1738.3916666666667, N
626115, 1739.2083333333333, N
626409, 1740.025, N
626700, 1740.8333333333333, N
627010, 1741.6944444444443, N
627313, 1742.536111111111, N
627624, 1743.4, N
627923, 1744.2305555555556, N
628209, 1745.025, N
628506, 1745.85, N
628788, 1746.6333333333334, N
629088, 1747.4666666666667, N
629404, 1748.3444444444444, N
629705, 1749.1805555555557, N
630000, 1750.0, N
630290, 1750.8055555555557, N
630571, 1751.5861111111112, N
630854, 1752.3722222222223, N
631152, 1753.2, N
631454, 1754.0388888888888, N
631759, 1754.8861111111112, N
632039, 1755.6638888888888, N
632340, 1756.5, N
632626, 1757.2944444444445, N
632904, 1758.0666666666666, N
633208, 1758.911111111111, N
633513, 1759.7583333333334, N
633820, 1760.611111111111, N
634127, 1761.463888888889, N
634420, 1762.2777777777778, N
634718, 1763.1055555555556, N
635009, 1763.9138888888888, N
635287, 1764.6861111111111, N
635604, 1765.5666666666666, N
635915, 1766.4305555555557, N
636219, 1767.275, N
636514, 1768.0944444444444, N
636816, 1768.9333333333334, N
637113, 1769.7583333333334, N
637395, 1770.5416666666667, N
637470, 1770.75, ~
637648, 1771.2444444444445, A
638043, 1772.3416666666667, N
638375, 1773.263888888889, N
638686, 1774.1277777777777, N
639006, 1775.0166666666667, N
639313, 1775.8694444444445, N
639606, 1776.6833333333334, N
639942, 1777.6166666666666, N
640261, 1778.5027777777777, N
640567, 1779.3527777777779, N
640854, 1780.15, N
641152, 1780.9777777777779, N
641438, 1781.7722222222221, N
641705, 1782.513888888889, N
642004, 1783.3444444444444, N
642309, 1784.1916666666666, N
642605, 1785.013888888889, N
642879, 1785.775, N
643158, 1786.55, N
643437, 1787.325, N
643713, 1788.0916666666667, N
643971, 1788.8083333333334, N
644273, 1789.6472222222221, N
644567, 1790.463888888889, N
644852, 1791.2555555555555, N
645124, 1792.0111111111112, N
645395, 1792.763888888889, N
645669, 1793.525, N
645942, 1794.2833333333333, N
646208, 1795.0222222222221, N
646504, 1795.8444444444444, N
646801, 1796.6694444444445, N
647079, 1797.4416666666666, N
647352, 1798.2, N
647624, 1798.9555555555555, N
647893, 1799.7027777777778, N
648146, 1800.4055555555556, N
648421, 1801.1694444444445, N
648709, 1801.9694444444444, N
648993, 1802.7583333333334, N
649261, 1803.5027777777777, N
649523, 1804.2305555555556, N
649783, 1804.9527777777778, N
