44, 0.12222222222222222, +
161, 0.44722222222222224, N
518, 1.4388888888888889, N
850, 2.361111111111111, N
1211, 3.363888888888889, N
1629, 4.525, N
1977, 5.491666666666666, N
2327, 6.463888888888889, N
2699, 7.497222222222222, N
3065, 8.51388888888889, N
3406, 9.46111111111111, N
3737, 10.380555555555556, N
4114, 11.427777777777777, N
4488, 12.466666666666667, N
4823, 13.397222222222222, N
5179, 14.386111111111111, N
5519, 15.330555555555556, N
5845, 16.23611111111111, N
6161, 17.113888888888887, N
6497, 18.04722222222222, N
6857, 19.04722222222222, N
7180, 19.944444444444443, N
7496, 20.822222222222223, N
7836, 21.766666666666666, N
8185, 22.73611111111111, N
8518, 23.66111111111111, N
8830, 24.52777777777778, N
9164, 25.455555555555556, N
9498, 26.383333333333333, N
9841, 27.336111111111112, N
10158, 28.216666666666665, N
10492, 29.144444444444446, N
10828, 30.07777777777778, N
11158, 30.994444444444444, N
11473, 31.869444444444444, N
11790, 32.75, N
12113, 33.647222222222226, N
12429, 34.525, N
12735, 35.375, N
13087, 36.352777777777774, N
13423, 37.28611111111111, N
13734, 38.15, N
14088, 39.13333333333333, N
14470, 40.19444444444444, N
14809, 41.13611111111111, N
15190, 42.19444444444444, N
15600, 43.333333333333336, N
15964, 44.34444444444444, N
16318, 45.327777777777776, N
16695, 46.375, N
17071, 47.419444444444444, N
17426, 48.40555555555556, N
17787, 49.40833333333333, N
18163, 50.452777777777776, N
18518, 51.43888888888889, N
18864, 52.4, N
19216, 53.37777777777778, N
19568, 54.355555555555554, N
19882, 55.227777777777774, N
20203, 56.11944444444445, N
20539, 57.05277777777778, N
20875, 57.986111111111114, N
21175, 58.81944444444444, N
21488, 59.68888888888889, N
21832, 60.644444444444446, N
22169, 61.580555555555556, N
22519, 62.55277777777778, N
22878, 63.55, N
23219, 64.49722222222222, N
23541, 65.39166666666667, N
23872, 66.31111111111112, N
24236, 67.32222222222222, N
24565, 68.23611111111111, N
24917, 69.21388888888889, N
25285, 70.23611111111111, N
25659, 71.275, N
26012, 72.25555555555556, N
26374, 73.2611111111111, N
26733, 74.25833333333334, N
27069, 75.19166666666666, N
27383, 76.06388888888888, N
27709, 76.96944444444445, N
28036, 77.87777777777778, N
28355, 78.76388888888889, N
28665, 79.625, N
28986, 80.51666666666667, N
29353, 81.53611111111111, N
29673, 82.425, N
30003, 83.34166666666667, N
30353, 84.31388888888888, N
30694, 85.2611111111111, N
31030, 86.19444444444444, N
31381, 87.16944444444445, N
31766, 88.2388888888889, N
32109, 89.19166666666666, N
32451, 90.14166666666667, N
32797, 91.10277777777777, N
33145, 92.06944444444444, N
33471, 92.975, N
33811, 93.91944444444445, N
34161, 94.89166666666667, N
34510, 95.86111111111111, N
34828, 96.74444444444444, N
35197, 97.76944444444445, N
35542, 98.72777777777777, N
35866, 99.62777777777778, N
36233, 100.64722222222223, N
36608, 101.68888888888888, N
36924, 102.56666666666666, N
37251, 103.475, N
37633, 104.53611111111111, N
38010, 105.58333333333333, N
38334, 106.48333333333333, N
38702, 107.50555555555556, N
39097, 108.60277777777777, N
39435, 109.54166666666667, N
39773, 110.48055555555555, N
40136, 111.4888888888889, N
40502, 112.50555555555556, N
40822, 113.39444444444445, N
41156, 114.32222222222222, N
41514, 115.31666666666666, N
41843, 116.23055555555555, N
42146, 117.07222222222222, N
42464, 117.95555555555555, N
42808, 118.91111111111111, N
43133, 119.81388888888888, N
43452, 120.7, N
43800, 121.66666666666667, N
44155, 122.65277777777777, N
44477, 123.54722222222222, N
44821, 124.50277777777778, N
45189, 125.525, N
45524, 126.45555555555555, N
45860, 127.38888888888889, N
46244, 128.45555555555555, N
46607, 129.4638888888889, N
46924, 130.34444444444443, N
47235, 131.20833333333334, N
47565, 132.125, N
47877, 132.99166666666667, N
48192, 133.86666666666667, N
48522, 134.78333333333333, N
48860, 135.72222222222223, N
49190, 136.63888888888889, N
49538, 137.60555555555555, N
49892, 138.5888888888889, N
50223, 139.50833333333333, N
50545, 140.40277777777777, N
50915, 141.43055555555554, N
51272, 142.42222222222222, N
51600, 143.33333333333334, N
51945, 144.29166666666666, N
52314, 145.31666666666666, N
52642, 146.2277777777778, N
52953, 147.09166666666667, N
53284, 148.01111111111112, N
53612, 148.92222222222222, N
53913, 149.75833333333333, N
54223, 150.61944444444444, N
54557, 151.54722222222222, N
54885, 152.45833333333334, N
55196, 153.32222222222222, N
55526, 154.23888888888888, N
55925, 155.34722222222223, N
56279, 156.33055555555555, N
56613, 157.25833333333333, N
56983, 158.2861111111111, N
57330, 159.25, N
57638, 160.10555555555555, N
57981, 161.05833333333334, N
58380, 162.16666666666666, N
58725, 163.125, N
59066, 164.07222222222222, N
59429, 165.08055555555555, N
59782, 166.0611111111111, N
60091, 166.91944444444445, N
60429, 167.85833333333332, N
60777, 168.825, N
61124, 169.7888888888889, N
61439, 170.6638888888889, N
61773, 171.59166666666667, N
62143, 172.61944444444444, N
62476, 173.54444444444445, N
62779, 174.38611111111112, N
63133, 175.36944444444444, N
63514, 176.42777777777778, N
63846, 177.35, N
64188, 178.3, N
64566, 179.35, N
64925, 180.34722222222223, N
65238, 181.21666666666667, N
65548, 182.07777777777778, N
65863, 182.95277777777778, N
66178, 183.82777777777778, N
66476, 184.65555555555557, N
66793, 185.5361111111111, N
67139, 186.49722222222223, N
67465, 187.40277777777777, N
67800, 188.33333333333334, N
68231, 189.53055555555557, N
68602, 190.5611111111111, N
68974, 191.59444444444443, N
69355, 192.65277777777777, N
69737, 193.7138888888889, N
70095, 194.70833333333334, N
70470, 195.75, N
70840, 196.77777777777777, N
71194, 197.76111111111112, N
71568, 198.8, N
71938, 199.82777777777778, N
72307, 200.8527777777778, N
72658, 201.82777777777778, N
73016, 202.82222222222222, N
73380, 203.83333333333334, N
73725, 204.79166666666666, N
74078, 205.7722222222222, N
74435, 206.76388888888889, N
74798, 207.7722222222222, N
75132, 208.7, N
75469, 209.63611111111112, N
75833, 210.6472222222222, N
76194, 211.65, N
76526, 212.57222222222222, N
76866, 213.51666666666668, N
77234, 214.5388888888889, N
77588, 215.5222222222222, N
77911, 216.41944444444445, N
78233, 217.3138888888889, N
78563, 218.23055555555555, N
78875, 219.09722222222223, N
79191, 219.975, N
79505, 220.84722222222223, N
79829, 221.74722222222223, N
80144, 222.62222222222223, N
80486, 223.57222222222222, N
80843, 224.5638888888889, N
81196, 225.54444444444445, N
81517, 226.4361111111111, N
81853, 227.36944444444444, N
82172, 228.25555555555556, N
82477, 229.1027777777778, N
82793, 229.98055555555555, N
83110, 230.86111111111111, N
83407, 231.6861111111111, N
83706, 232.51666666666668, N
84022, 233.39444444444445, N
84322, 234.2277777777778, N
84612, 235.03333333333333, N
84913, 235.86944444444444, N
85225, 236.73611111111111, N
85532, 237.5888888888889, N
85875, 238.54166666666666, N
86234, 239.5388888888889, N
86580, 240.5, N
86957, 241.54722222222222, N
87319, 242.55277777777778, N
87654, 243.48333333333332, N
88006, 244.4611111111111, N
88332, 245.36666666666667, N
88637, 246.2138888888889, N
88936, 247.04444444444445, N
89257, 247.9361111111111, N
89614, 248.92777777777778, N
89959, 249.88611111111112, N
90305, 250.84722222222223, N
90699, 251.94166666666666, N
91100, 253.05555555555554, N
91466, 254.07222222222222, N
91835, 255.09722222222223, N
92216, 256.15555555555557, N
92571, 257.14166666666665, N
92895, 258.0416666666667, N
93259, 259.0527777777778, N
93633, 260.09166666666664, N
93973, 261.0361111111111, N
94290, 261.9166666666667, N
94652, 262.9222222222222, N
95011, 263.9194444444444, N
95331, 264.80833333333334, N
95664, 265.73333333333335, N
96011, 266.6972222222222, N
96334, 267.59444444444443, N
96639, 268.44166666666666, N
96980, 269.3888888888889, N
97349, 270.4138888888889, N
97678, 271.3277777777778, N
98038, 272.3277777777778, N
98412, 273.3666666666667, N
98728, 274.24444444444447, N
99038, 275.10555555555555, N
99373, 276.0361111111111, N
99701, 276.9472222222222, N
100009, 277.8027777777778, N
100328, 278.68888888888887, N
100663, 279.61944444444447, N
100987, 280.51944444444445, N
101337, 281.4916666666667, N
101731, 282.5861111111111, N
102086, 283.5722222222222, N
102417, 284.4916666666667, N
102775, 285.4861111111111, N
103155, 286.5416666666667, N
103500, 287.5, N
103839, 288.44166666666666, N
104197, 289.43611111111113, N
104532, 290.3666666666667, N
104849, 291.2472222222222, N
105189, 292.19166666666666, N
105573, 293.2583333333333, N
105956, 294.3222222222222, N
106306, 295.2944444444444, N
106649, 296.2472222222222, N
106987, 297.18611111111113, N
107300, 298.05555555555554, N
107617, 298.93611111111113, N
107925, 299.7916666666667, N
108261, 300.725, N
108589, 301.6361111111111, N
108921, 302.55833333333334, N
109284, 303.56666666666666, N
109654, 304.59444444444443, N
109991, 305.53055555555557, N
110354, 306.5388888888889, N
110741, 307.6138888888889, N
111111, 308.64166666666665, N
111444, 309.56666666666666, N
111799, 310.5527777777778, N
112186, 311.6277777777778, N
112536, 312.6, N
112860, 313.5, N
113200, 314.44444444444446, N
113555, 315.43055555555554, N
113882, 316.3388888888889, N
114202, 317.22777777777776, N
114543, 318.175, N
114878, 319.10555555555555, N
115198, 319.99444444444447, N
115532, 320.9222222222222, N
115872, 321.8666666666667, N
116198, 322.77222222222224, N
116526, 323.68333333333334, N
116889, 324.69166666666666, N
117261, 325.725, N
117587, 326.63055555555553, N
117926, 327.5722222222222, N
118310, 328.6388888888889, N
118637, 329.5472222222222, N
118966, 330.4611111111111, N
119308, 331.4111111111111, N
119661, 332.39166666666665, N
119982, 333.28333333333336, N
120313, 334.2027777777778, N
120660, 335.1666666666667, N
121018, 336.1611111111111, N
121334, 337.0388888888889, N
121683, 338.0083333333333, N
122040, 339.0, N
122359, 339.8861111111111, N
122666, 340.7388888888889, N
123001, 341.6694444444444, N
123354, 342.65, N
123673, 343.5361111111111, N
123995, 344.43055555555554, N
124379, 345.4972222222222, N
124754, 346.5388888888889, N
125082, 347.45, N
125423, 348.39722222222224, N
125765, 349.34722222222223, N
126096, 350.26666666666665, N
126397, 351.10277777777776, N
126732, 352.03333333333336, N
127129, 353.1361111111111, N
127471, 354.0861111111111, N
127788, 354.96666666666664, N
128135, 355.93055555555554, N
128501, 356.9472222222222, N
128815, 357.81944444444446, N
129132, 358.7, N
129480, 359.6666666666667, N
129821, 360.6138888888889, N
130128, 361.46666666666664, N
130447, 362.35277777777776, N
130792, 363.31111111111113, N
131112, 364.2, N
131414, 365.0388888888889, N
131738, 365.93888888888887, N
132082, 366.89444444444445, N
132406, 367.7944444444444, N
132713, 368.64722222222224, N
133044, 369.56666666666666, N
133418, 370.60555555555555, N
133778, 371.60555555555555, N
134105, 372.5138888888889, N
134491, 373.5861111111111, N
134860, 374.6111111111111, N
135189, 375.525, N
135529, 376.46944444444443, N
135898, 377.49444444444447, N
136227, 378.40833333333336, N
136527, 379.2416666666667, N
136855, 380.15277777777777, N
137211, 381.14166666666665, N
137528, 382.02222222222224, N
137841, 382.89166666666665, N
138201, 383.89166666666665, N
138583, 384.9527777777778, N
138913, 385.86944444444447, N
139260, 386.8333333333333, N
139660, 387.94444444444446, N
140004, 388.9, N
140317, 389.76944444444445, N
140672, 390.75555555555553, N
141056, 391.8222222222222, N
141390, 392.75, N
141694, 393.59444444444443, N
142048, 394.5777777777778, N
142416, 395.6, N
142773, 396.59166666666664, N
143111, 397.53055555555557, N
143482, 398.56111111111113, N
143880, 399.6666666666667, N
144233, 400.64722222222224, N
144555, 401.5416666666667, N
144914, 402.5388888888889, N
145260, 403.5, N
145578, 404.3833333333333, N
145887, 405.2416666666667, N
146223, 406.175, N
146568, 407.1333333333333, N
146883, 408.0083333333333, N
147206, 408.90555555555557, N
147560, 409.8888888888889, N
147938, 410.93888888888887, N
148277, 411.88055555555553, N
148650, 412.9166666666667, N
149034, 413.98333333333335, N
149366, 414.90555555555557, N
149680, 415.77777777777777, N
150003, 416.675, N
150331, 417.5861111111111, N
150637, 418.43611111111113, N
150954, 419.31666666666666, N
151287, 420.2416666666667, N
151630, 421.19444444444446, N
151938, 422.05, N
152250, 422.9166666666667, N
152583, 423.84166666666664, N
152921, 424.78055555555557, N
153225, 425.625, N
153563, 426.56388888888887, N
153936, 427.6, N
154295, 428.59722222222223, N
154626, 429.51666666666665, N
154964, 430.4555555555556, N
155297, 431.38055555555553, N
155606, 432.2388888888889, N
155907, 433.075, N
156235, 433.9861111111111, N
156590, 434.97222222222223, N
156910, 435.8611111111111, N
157215, 436.7083333333333, N
157542, 437.6166666666667, N
157852, 438.47777777777776, N
158147, 439.2972222222222, N
158448, 440.1333333333333, N
158800, 441.1111111111111, N
159150, 442.0833333333333, N
159473, 442.98055555555555, N
159865, 444.06944444444446, N
160257, 445.15833333333336, N
160588, 446.0777777777778, N
160927, 447.01944444444445, N
161285, 448.0138888888889, N
161618, 448.93888888888887, N
161934, 449.81666666666666, N
162252, 450.7, N
162589, 451.6361111111111, N
162917, 452.5472222222222, N
163218, 453.3833333333333, N
163523, 454.23055555555555, N
163857, 455.15833333333336, N
164168, 456.02222222222224, N
164480, 456.8888888888889, N
164810, 457.80555555555554, N
165183, 458.84166666666664, N
165538, 459.8277777777778, N
165853, 460.7027777777778, N
166175, 461.59722222222223, N
166508, 462.52222222222224, N
166824, 463.4, N
167128, 464.24444444444447, N
167423, 465.06388888888887, N
167713, 465.86944444444447, N
168013, 466.7027777777778, N
168321, 467.55833333333334, N
168624, 468.4, N
168933, 469.2583333333333, N
169235, 470.09722222222223, N
169678, 471.3277777777778, N
170095, 472.4861111111111, N
170460, 473.5, N
170826, 474.51666666666665, N
171200, 475.55555555555554, N
171579, 476.60833333333335, N
171938, 477.60555555555555, N
172315, 478.65277777777777, N
172689, 479.69166666666666, N
173054, 480.7055555555556, N
173410, 481.69444444444446, N
173774, 482.7055555555556, N
174130, 483.69444444444446, N
174452, 484.5888888888889, N
174789, 485.525, N
175174, 486.59444444444443, N
175526, 487.5722222222222, N
175854, 488.48333333333335, N
176223, 489.5083333333333, N
176592, 490.53333333333336, N
176917, 491.43611111111113, N
177240, 492.3333333333333, N
177590, 493.30555555555554, N
177944, 494.2888888888889, N
178290, 495.25, N
178605, 496.125, N
178957, 497.10277777777776, N
179328, 498.1333333333333, N
179707, 499.18611111111113, N
180031, 500.0861111111111, N
180354, 500.98333333333335, N
180689, 501.9138888888889, N
181026, 502.85, N
181330, 503.69444444444446, N
181645, 504.56944444444446, N
181994, 505.5388888888889, N
182350, 506.52777777777777, N
182669, 507.4138888888889, N
183005, 508.34722222222223, N
183378, 509.3833333333333, N
183733, 510.36944444444447, N
184041, 511.225, N
184383, 512.175, N
184760, 513.2222222222222, N
185096, 514.1555555555556, N
185413, 515.0361111111112, N
185748, 515.9666666666667, N
186081, 516.8916666666667, N
186387, 517.7416666666667, N
186701, 518.6138888888889, N
187029, 519.525, N
187350, 520.4166666666666, N
187661, 521.2805555555556, N
187987, 522.1861111111111, N
188336, 523.1555555555556, N
188685, 524.125, N
189007, 525.0194444444444, N
189359, 525.9972222222223, N
189762, 527.1166666666667, N
190121, 528.1138888888889, N
190472, 529.0888888888888, N
190823, 530.0638888888889, N
191167, 531.0194444444444, N
191483, 531.8972222222222, N
191819, 532.8305555555555, N
192173, 533.8138888888889, N
192506, 534.7388888888889, N
192834, 535.65, N
193164, 536.5666666666667, N
193523, 537.5638888888889, N
193865, 538.5138888888889, N
194216, 539.4888888888889, N
194572, 540.4777777777778, N
194915, 541.4305555555555, N
195241, 542.3361111111111, N
195579, 543.275, N
195912, 544.2, N
196239, 545.1083333333333, N
196555, 545.9861111111111, N
196873, 546.8694444444444, N
197208, 547.8, N
197534, 548.7055555555555, N
197848, 549.5777777777778, N
198184, 550.5111111111111, N
198531, 551.475, N
198889, 552.4694444444444, N
199214, 553.3722222222223, N
199556, 554.3222222222222, N
199923, 555.3416666666667, N
200256, 556.2666666666667, N
200578, 557.1611111111112, N
200908, 558.0777777777778, N
201223, 558.9527777777778, N
201539, 559.8305555555555, N
201874, 560.7611111111111, N
202232, 561.7555555555556, N
202569, 562.6916666666667, N
202909, 563.6361111111111, N
203287, 564.6861111111111, N
203626, 565.6277777777777, N
203944, 566.5111111111111, N
204282, 567.45, N
204628, 568.4111111111112, N
204963, 569.3416666666667, N
205286, 570.2388888888889, N
205635, 571.2083333333334, N
205986, 572.1833333333333, N
206296, 573.0444444444445, N
206625, 573.9583333333334, N
206960, 574.8888888888889, N
207279, 575.775, N
207588, 576.6333333333333, N
207918, 577.55, N
208291, 578.5861111111111, N
208619, 579.4972222222223, N
208927, 580.3527777777778, N
209299, 581.3861111111111, N
209676, 582.4333333333333, N
210004, 583.3444444444444, N
210323, 584.2305555555556, N
210675, 585.2083333333334, N
211020, 586.1666666666666, N
211333, 587.0361111111112, N
211655, 587.9305555555555, N
211990, 588.8611111111111, N
212311, 589.7527777777777, N
212612, 590.5888888888888, N
212921, 591.4472222222222, N
213256, 592.3777777777777, N
213584, 593.2888888888889, N
213882, 594.1166666666667, N
214201, 595.0027777777777, N
214550, 595.9722222222222, N
214869, 596.8583333333333, N
215169, 597.6916666666667, N
215481, 598.5583333333333, N
215808, 599.4666666666667, N
216120, 600.3333333333334, N
216418, 601.1611111111112, N
216722, 602.0055555555556, N
217090, 603.0277777777778, N
217413, 603.925, N
217714, 604.7611111111111, N
218040, 605.6666666666666, N
218373, 606.5916666666667, N
218691, 607.475, N
218989, 608.3027777777778, N
219308, 609.1888888888889, N
219671, 610.1972222222222, N
220007, 611.1305555555556, N
220311, 611.975, N
220631, 612.8638888888889, N
220977, 613.825, N
221289, 614.6916666666667, N
221590, 615.5277777777778, N
221930, 616.4722222222222, N
222294, 617.4833333333333, N
222610, 618.3611111111111, N
222911, 619.1972222222222, N
223231, 620.0861111111111, N
223614, 621.15, N
223952, 622.0888888888888, N
224300, 623.0555555555555, N
224683, 624.1194444444444, N
225032, 625.0888888888888, N
225337, 625.9361111111111, N
225683, 626.8972222222222, N
226038, 627.8833333333333, N
226366, 628.7944444444445, N
226676, 629.6555555555556, N
227001, 630.5583333333333, N
227358, 631.55, N
227677, 632.4361111111111, N
227983, 633.2861111111112, N
228303, 634.175, N
228615, 635.0416666666666, N
228922, 635.8944444444444, N
229231, 636.7527777777777, N
229565, 637.6805555555555, N
229881, 638.5583333333333, N
230196, 639.4333333333333, N
230498, 640.2722222222222, N
230791, 641.0861111111111, N
231083, 641.8972222222222, N
231409, 642.8027777777778, N
231739, 643.7194444444444, N
232040, 644.5555555555555, N
232344, 645.4, N
232681, 646.3361111111111, N
232998, 647.2166666666667, N
233300, 648.0555555555555, N
233623, 648.9527777777778, N
233973, 649.925, N
234300, 650.8333333333334, N
234604, 651.6777777777778, N
234934, 652.5944444444444, N
235302, 653.6166666666667, N
235632, 654.5333333333333, N
235938, 655.3833333333333, N
236293, 656.3694444444444, N
236662, 657.3944444444444, N
236991, 658.3083333333333, N
237300, 659.1666666666666, N
237655, 660.1527777777778, N
238001, 661.1138888888889, N
238310, 661.9722222222222, N
238632, 662.8666666666667, N
238983, 663.8416666666667, N
239321, 664.7805555555556, N
239629, 665.6361111111111, N
239953, 666.5361111111112, N
240309, 667.525, N
240629, 668.4138888888889, N
240933, 669.2583333333333, N
241261, 670.1694444444445, N
241609, 671.1361111111111, N
241934, 672.0388888888889, N
242236, 672.8777777777777, N
242549, 673.7472222222223, N
242910, 674.75, N
243235, 675.6527777777778, N
243541, 676.5027777777777, N
243874, 677.4277777777778, N
244203, 678.3416666666667, N
244513, 679.2027777777778, N
244809, 680.025, N
245125, 680.9027777777778, N
245470, 681.8611111111111, N
245784, 682.7333333333333, N
246076, 683.5444444444445, N
246395, 684.4305555555555, N
246706, 685.2944444444445, N
247017, 686.1583333333333, N
247304, 686.9555555555555, N
247616, 687.8222222222222, N
247940, 688.7222222222222, N
248247, 689.575, N
248544, 690.4, N
248865, 691.2916666666666, N
249209, 692.2472222222223, N
249528, 693.1333333333333, N
249835, 693.9861111111111, N
250177, 694.9361111111111, N
250540, 695.9444444444445, N
250863, 696.8416666666667, N
251199, 697.775, N
251539, 698.7194444444444, N
251880, 699.6666666666666, N
252197, 700.5472222222222, N
252511, 701.4194444444445, N
252866, 702.4055555555556, N
253227, 703.4083333333333, N
253542, 704.2833333333333, N
253911, 705.3083333333333, N
254292, 706.3666666666667, N
254627, 707.2972222222222, N
254946, 708.1833333333333, N
255270, 709.0833333333334, N
255625, 710.0694444444445, N
255940, 710.9444444444445, N
256273, 711.8694444444444, N
256679, 712.9972222222223, N
257065, 714.0694444444445, N
257401, 715.0027777777777, N
257742, 715.95, N
258109, 716.9694444444444, N
258428, 717.8555555555556, N
258734, 718.7055555555555, N
259048, 719.5777777777778, N
259366, 720.4611111111111, N
259679, 721.3305555555555, N
260004, 722.2333333333333, N
260335, 723.1527777777778, N
260663, 724.0638888888889, N
260989, 724.9694444444444, N
261337, 725.9361111111111, N
261730, 727.0277777777778, N
262080, 728.0, N
262416, 728.9333333333333, N
262741, 729.8361111111111, N
263055, 730.7083333333334, N
263367, 731.575, N
263683, 732.4527777777778, N
263992, 733.3111111111111, N
264306, 734.1833333333333, N
264603, 735.0083333333333, N
264915, 735.875, N
265244, 736.7888888888889, N
265563, 737.675, N
265872, 738.5333333333333, N
266187, 739.4083333333333, N
266493, 740.2583333333333, N
266788, 741.0777777777778, N
267081, 741.8916666666667, N
267402, 742.7833333333333, N
267752, 743.7555555555556, N
268066, 744.6277777777777, N
268416, 745.6, N
268843, 746.7861111111112, N
269203, 747.7861111111112, N
269554, 748.7611111111111, N
269923, 749.7861111111112, N
270277, 750.7694444444444, N
270594, 751.65, N
270928, 752.5777777777778, N
271292, 753.5888888888888, N
271624, 754.5111111111111, N
271930, 755.3611111111111, N
272275, 756.3194444444445, N
272664, 757.4, N
273015, 758.375, N
273334, 759.2611111111111, N
273683, 760.2305555555556, N
274052, 761.2555555555556, N
274386, 762.1833333333333, N
274707, 763.075, N
275048, 764.0222222222222, N
275419, 765.0527777777778, N
275746, 765.9611111111111, N
276066, 766.85, N
276414, 767.8166666666667, N
276762, 768.7833333333333, N
277072, 769.6444444444444, N
277410, 770.5833333333334, N
277771, 771.5861111111111, N
278112, 772.5333333333333, N
278427, 773.4083333333333, N
278759, 774.3305555555555, N
279107, 775.2972222222222, N
279411, 776.1416666666667, N
279704, 776.9555555555555, N
280005, 777.7916666666666, N
280322, 778.6722222222222, N
280621, 779.5027777777777, N
280911, 780.3083333333333, N
281224, 781.1777777777778, N
281559, 782.1083333333333, N
281864, 782.9555555555555, N
282153, 783.7583333333333, N
282470, 784.6388888888889, N
282805, 785.5694444444445, N
283120, 786.4444444444445, N
283418, 787.2722222222222, N
283748, 788.1888888888889, N
284126, 789.2388888888889, N
284443, 790.1194444444444, N
284770, 791.0277777777778, N
285105, 791.9583333333334, N
285427, 792.8527777777778, N
285730, 793.6944444444445, N
286042, 794.5611111111111, N
286360, 795.4444444444445, N
286677, 796.325, N
286979, 797.1638888888889, N
287280, 798.0, N
287623, 798.9527777777778, N
287945, 799.8472222222222, N
288256, 800.7111111111111, N
288575, 801.5972222222222, N
288906, 802.5166666666667, N
289230, 803.4166666666666, N
289534, 804.2611111111111, N
289898, 805.2722222222222, N
290292, 806.3666666666667, N
290649, 807.3583333333333, N
290998, 808.3277777777778, N
291349, 809.3027777777778, N
291706, 810.2944444444445, N
292022, 811.1722222222222, N
292347, 812.075, N
292701, 813.0583333333333, N
293058, 814.05, N
293388, 814.9666666666667, N
293739, 815.9416666666667, N
294121, 817.0027777777777, N
294474, 817.9833333333333, N
294793, 818.8694444444444, N
295142, 819.8388888888888, N
295495, 820.8194444444445, N
295835, 821.7638888888889, N
296144, 822.6222222222223, N
296461, 823.5027777777777, N
296813, 824.4805555555556, N
297133, 825.3694444444444, N
297434, 826.2055555555555, N
297757, 827.1027777777778, N
298110, 828.0833333333334, N
298462, 829.0611111111111, N
298776, 829.9333333333333, N
299115, 830.875, N
299466, 831.85, N
299780, 832.7222222222222, N
300088, 833.5777777777778, N
300411, 834.475, N
300744, 835.4, N
301062, 836.2833333333333, N
301378, 837.1611111111112, N
301708, 838.0777777777778, N
302053, 839.0361111111112, N
302367, 839.9083333333333, N
302692, 840.8111111111111, N
303090, 841.9166666666666, N
303469, 842.9694444444444, N
303805, 843.9027777777778, N
304137, 844.825, N
304474, 845.7611111111111, N
304807, 846.6861111111111, N
305110, 847.5277777777778, N
305452, 848.4777777777778, N
305810, 849.4722222222222, N
306159, 850.4416666666667, N
306469, 851.3027777777778, N
306791, 852.1972222222222, N
307136, 853.1555555555556, N
307491, 854.1416666666667, N
307800, 855.0, N
308124, 855.9, N
308458, 856.8277777777778, N
308799, 857.775, N
309108, 858.6333333333333, N
309418, 859.4944444444444, N
309762, 860.45, N
310089, 861.3583333333333, N
310387, 862.1861111111111, N
310710, 863.0833333333334, N
311043, 864.0083333333333, N
311367, 864.9083333333333, N
311669, 865.7472222222223, N
311970, 866.5833333333334, N
312280, 867.4444444444445, N
312596, 868.3222222222222, N
312887, 869.1305555555556, N
313187, 869.9638888888888, N
313513, 870.8694444444444, N
313866, 871.85, N
314183, 872.7305555555556, N
314543, 873.7305555555556, N
314992, 874.9777777777778, N
315361, 876.0027777777777, N
315739, 877.0527777777778, N
316121, 878.1138888888889, N
316499, 879.1638888888889, N
316847, 880.1305555555556, N
317205, 881.125, N
317578, 882.1611111111112, N
317917, 883.1027777777778, N
318247, 884.0194444444444, N
318596, 884.9888888888889, N
318945, 885.9583333333334, N
319260, 886.8333333333334, N
319581, 887.725, N
319944, 888.7333333333333, N
320294, 889.7055555555555, N
320610, 890.5833333333334, N
320967, 891.575, N
321343, 892.6194444444444, N
321693, 893.5916666666667, N
322003, 894.4527777777778, N
322344, 895.4, N
322735, 896.4861111111111, N
323072, 897.4222222222222, N
323399, 898.3305555555555, N
323764, 899.3444444444444, N
324120, 900.3333333333334, N
324438, 901.2166666666667, N
324736, 902.0444444444445, N
325076, 902.9888888888889, N
325412, 903.9222222222222, N
325714, 904.7611111111111, N
326014, 905.5944444444444, N
326319, 906.4416666666667, N
326628, 907.3, N
326925, 908.125, N
327218, 908.9388888888889, N
327538, 909.8277777777778, N
327928, 910.9111111111112, N
328258, 911.8277777777778, N
328634, 912.8722222222223, N
329039, 913.9972222222223, N
329408, 915.0222222222222, N
329730, 915.9166666666666, N
330074, 916.8722222222223, N
330458, 917.9388888888889, N
330774, 918.8166666666667, N
331088, 919.6888888888889, N
331422, 920.6166666666667, N
331755, 921.5416666666666, N
332062, 922.3944444444444, N
332393, 923.3138888888889, N
332740, 924.2777777777778, N
333078, 925.2166666666667, N
333386, 926.0722222222222, N
333707, 926.9638888888888, N
334034, 927.8722222222223, N
334356, 928.7666666666667, N
334670, 929.6388888888889, N
335002, 930.5611111111111, N
335391, 931.6416666666667, N
335729, 932.5805555555555, N
336045, 933.4583333333334, N
336375, 934.375, N
336710, 935.3055555555555, N
337030, 936.1944444444445, N
337338, 937.05, N
337687, 938.0194444444444, N
338050, 939.0277777777778, N
338371, 939.9194444444445, N
338679, 940.775, N
339023, 941.7305555555556, N
339378, 942.7166666666667, N
339706, 943.6277777777777, N
340017, 944.4916666666667, N
340381, 945.5027777777777, N
340773, 946.5916666666667, N
341099, 947.4972222222223, N
341411, 948.3638888888889, N
341731, 949.2527777777777, N
342041, 950.1138888888889, N
342353, 950.9805555555556, N
342668, 951.8555555555556, N
343026, 952.85, N
343382, 953.8388888888888, N
343693, 954.7027777777778, N
344043, 955.675, N
344460, 956.8333333333334, N
344820, 957.8333333333334, N
345156, 958.7666666666667, N
345531, 959.8083333333333, N
345910, 960.8611111111111, N
346231, 961.7527777777777, N
346554, 962.65, N
346884, 963.5666666666667, N
347227, 964.5194444444444, N
347542, 965.3944444444444, N
347872, 966.3111111111111, N
348218, 967.2722222222222, N
348573, 968.2583333333333, N
348888, 969.1333333333333, N
349213, 970.0361111111112, N
349595, 971.0972222222222, N
349979, 972.1638888888889, N
350303, 973.0638888888889, N
350631, 973.975, N
350966, 974.9055555555556, N
351279, 975.775, N
351570, 976.5833333333334, N
351892, 977.4777777777778, N
352219, 978.3861111111111, N
352536, 979.2666666666667, N
352829, 980.0805555555555, N
353148, 980.9666666666667, N
353482, 981.8944444444444, N
353811, 982.8083333333333, N
354112, 983.6444444444444, N
354440, 984.5555555555555, N
354795, 985.5416666666666, N
355148, 986.5222222222222, N
355457, 987.3805555555556, N
355789, 988.3027777777778, N
356140, 989.2777777777778, N
356449, 990.1361111111111, N
356742, 990.95, N
357048, 991.8, N
357356, 992.6555555555556, N
357662, 993.5055555555556, N
357953, 994.3138888888889, N
358250, 995.1388888888889, N
358551, 995.975, N
358854, 996.8166666666667, N
359145, 997.625, N
359444, 998.4555555555555, N
359762, 999.3388888888888, N
360085, 1000.2361111111111, N
360391, 1001.0861111111111, N
360708, 1001.9666666666667, N
361044, 1002.9, N
361378, 1003.8277777777778, N
361691, 1004.6972222222222, N
362029, 1005.6361111111111, N
362438, 1006.7722222222222, N
362792, 1007.7555555555556, N
363130, 1008.6944444444445, N
363478, 1009.6611111111112, N
363809, 1010.5805555555555, N
364111, 1011.4194444444445, N
364434, 1012.3166666666667, N
364790, 1013.3055555555555, N
365106, 1014.1833333333333, N
365420, 1015.0555555555555, N
365742, 1015.95, N
366083, 1016.8972222222222, N
366403, 1017.7861111111112, N
366709, 1018.6361111111111, N
367028, 1019.5222222222222, N
367365, 1020.4583333333334, N
367682, 1021.3388888888888, N
367988, 1022.1888888888889, N
368301, 1023.0583333333333, N
368629, 1023.9694444444444, N
368973, 1024.925, N
369286, 1025.7944444444445, N
369602, 1026.6722222222222, N
369927, 1027.575, N
370247, 1028.463888888889, N
370554, 1029.3166666666666, N
370872, 1030.2, N
371196, 1031.1, N
371524, 1032.0111111111112, N
371834, 1032.8722222222223, N
372189, 1033.8583333333333, N
372532, 1034.8111111111111, N
372865, 1035.736111111111, N
373185, 1036.625, N
373509, 1037.525, N
373836, 1038.4333333333334, N
374182, 1039.3944444444444, N
374491, 1040.2527777777777, N
374815, 1041.1527777777778, N
375163, 1042.1194444444445, N
375551, 1043.1972222222223, N
375895, 1044.1527777777778, N
376253, 1045.1472222222221, N
376633, 1046.2027777777778, N
376967, 1047.1305555555555, N
377272, 1047.9777777777779, N
377591, 1048.8638888888888, N
377935, 1049.8194444444443, N
378273, 1050.7583333333334, N
378587, 1051.6305555555555, N
378893, 1052.4805555555556, N
379208, 1053.3555555555556, N
379517, 1054.213888888889, N
379812, 1055.0333333333333, N
380121, 1055.8916666666667, N
380436, 1056.7666666666667, N
380747, 1057.6305555555555, N
381046, 1058.4611111111112, N
381359, 1059.3305555555555, N
381696, 1060.2666666666667, N
382026, 1061.1833333333334, N
382326, 1062.0166666666667, N
382633, 1062.8694444444445, N
382956, 1063.7666666666667, N
383268, 1064.6333333333334, N
383568, 1065.4666666666667, N
383875, 1066.3194444444443, N
384177, 1067.1583333333333, N
384477, 1067.9916666666666, N
384776, 1068.8222222222223, N
385064, 1069.6222222222223, N
385375, 1070.486111111111, N
385670, 1071.3055555555557, N
385994, 1072.2055555555555, N
386324, 1073.1222222222223, N
386678, 1074.1055555555556, N
387028, 1075.0777777777778, N
387398, 1076.1055555555556, N
387834, 1077.3166666666666, N
388195, 1078.3194444444443, N
388523, 1079.2305555555556, N
388836, 1080.1, N
389137, 1080.9361111111111, N
389445, 1081.7916666666667, N
389757, 1082.6583333333333, N
390070, 1083.5277777777778, N
390392, 1084.4222222222222, N
390701, 1085.2805555555556, N
391053, 1086.2583333333334, N
391499, 1087.4972222222223, N
391879, 1088.5527777777777, N
392291, 1089.6972222222223, N
392686, 1090.7944444444445, N
393060, 1091.8333333333333, N
393432, 1092.8666666666666, N
393797, 1093.8805555555555, N
394125, 1094.7916666666667, N
394443, 1095.675, N
394763, 1096.5638888888889, N
395068, 1097.411111111111, N
395370, 1098.25, N
395695, 1099.1527777777778, N
396032, 1100.088888888889, N
396359, 1100.9972222222223, N
396726, 1102.0166666666667, N
397121, 1103.1138888888888, N
397460, 1104.0555555555557, N
397801, 1105.0027777777777, N
398196, 1106.1, N
398538, 1107.05, N
398868, 1107.9666666666667, N
399199, 1108.8861111111112, N
399531, 1109.8083333333334, N
399851, 1110.6972222222223, N
400180, 1111.611111111111, N
400513, 1112.536111111111, N
400834, 1113.4277777777777, N
401144, 1114.2888888888888, N
401498, 1115.2722222222221, N
401842, 1116.2277777777779, N
402170, 1117.138888888889, N
402494, 1118.0388888888888, N
402848, 1119.0222222222221, N
403228, 1120.0777777777778, N
403560, 1121.0, N
403902, 1121.95, N
404241, 1122.8916666666667, N
404556, 1123.7666666666667, N
404872, 1124.6444444444444, N
405228, 1125.6333333333334, N
405613, 1126.7027777777778, N
405989, 1127.7472222222223, N
406319, 1128.6638888888888, N
406665, 1129.625, N
407023, 1130.6194444444445, N
407349, 1131.525, N
407667, 1132.4083333333333, N
407985, 1133.2916666666667, N
408319, 1134.2194444444444, N
408632, 1135.088888888889, N
408949, 1135.9694444444444, N
409300, 1136.9444444444443, N
409648, 1137.911111111111, N
409961, 1138.7805555555556, N
410290, 1139.6944444444443, N
410614, 1140.5944444444444, N
410942, 1141.5055555555555, N
411241, 1142.3361111111112, N
411551, 1143.1972222222223, N
411860, 1144.0555555555557, N
412183, 1144.9527777777778, N
412497, 1145.825, N
412813, 1146.7027777777778, N
413146, 1147.6277777777777, N
413476, 1148.5444444444445, N
413793, 1149.425, N
414120, 1150.3333333333333, N
414448, 1151.2444444444445, N
414759, 1152.1083333333333, N
415064, 1152.9555555555555, N
415398, 1153.8833333333334, N
415741, 1154.8361111111112, N
416045, 1155.6805555555557, N
416345, 1156.513888888889, N
416645, 1157.3472222222222, N
416977, 1158.2694444444444, N
417278, 1159.1055555555556, N
417570, 1159.9166666666667, N
417882, 1160.7833333333333, N
418178, 1161.6055555555556, N
418459, 1162.3861111111112, N
418753, 1163.2027777777778, N
419037, 1163.9916666666666, N
419340, 1164.8333333333333, N
419627, 1165.6305555555555, N
419913, 1166.425, N
420221, 1167.2805555555556, N
420530, 1168.138888888889, N
420831, 1168.975, N
421135, 1169.8194444444443, N
421479, 1170.775, N
421810, 1171.6944444444443, N
422124, 1172.5666666666666, N
422439, 1173.4416666666666, N
422760, 1174.3333333333333, N
423076, 1175.2111111111112, N
423385, 1176.0694444444443, N
423700, 1176.9444444444443, N
424043, 1177.8972222222221, N
424363, 1178.786111111111, N
424693, 1179.7027777777778, N
425029, 1180.6361111111112, N
425386, 1181.6277777777777, N
425698, 1182.4944444444445, N
426008, 1183.3555555555556, N
426334, 1184.2611111111112, N
426640, 1185.111111111111, N
426959, 1185.9972222222223, N
427332, 1187.0333333333333, N
427665, 1187.9583333333333, N
428011, 1188.9194444444445, N
428412, 1190.0333333333333, N
428777, 1191.0472222222222, N
429106, 1191.9611111111112, N
429459, 1192.9416666666666, N
429836, 1193.9888888888888, N
430166, 1194.9055555555556, N
430476, 1195.7666666666667, N
430793, 1196.6472222222221, N
431111, 1197.5305555555556, N
431409, 1198.3583333333333, N
431704, 1199.1777777777777, N
432019, 1200.0527777777777, N
432356, 1200.9888888888888, N
432668, 1201.8555555555556, N
432977, 1202.713888888889, N
433311, 1203.6416666666667, N
433649, 1204.5805555555555, N
433950, 1205.4166666666667, N
434257, 1206.2694444444444, N
434568, 1207.1333333333334, N
434877, 1207.9916666666666, N
435172, 1208.8111111111111, N
435481, 1209.6694444444445, N
435845, 1210.6805555555557, N
436193, 1211.6472222222221, N
436510, 1212.5277777777778, N
436858, 1213.4944444444445, N
437224, 1214.5111111111112, N
437550, 1215.4166666666667, N
437853, 1216.2583333333334, N
438176, 1217.1555555555556, N
438516, 1218.1, N
438822, 1218.95, N
439118, 1219.7722222222221, N
439444, 1220.6777777777777, N
439796, 1221.6555555555556, N
440123, 1222.5638888888889, N
440432, 1223.4222222222222, N
440801, 1224.4472222222223, N
441217, 1225.6027777777779, N
441566, 1226.5722222222223, N
441890, 1227.4722222222222, N
442215, 1228.375, N
442540, 1229.2777777777778, N
442852, 1230.1444444444444, N
443147, 1230.963888888889, N
443474, 1231.8722222222223, N
443822, 1232.838888888889, N
444169, 1233.8027777777777, N
444486, 1234.6833333333334, N
444844, 1235.6777777777777, N
445242, 1236.7833333333333, N
445578, 1237.7166666666667, N
445911, 1238.6416666666667, N
446248, 1239.5777777777778, N
446587, 1240.5194444444444, N
446884, 1241.3444444444444, N
447179, 1242.1638888888888, N
447470, 1242.9722222222222, N
447756, 1243.7666666666667, N
448041, 1244.5583333333334, N
448316, 1245.3222222222223, N
448615, 1246.1527777777778, N
448934, 1247.0388888888888, N
449238, 1247.8833333333334, N
449571, 1248.8083333333334, N
449969, 1249.9138888888888, N
450348, 1250.9666666666667, N
450689, 1251.9138888888888, N
451080, 1253.0, N
451480, 1254.111111111111, N
451829, 1255.0805555555555, N
452187, 1256.075, N
452553, 1257.0916666666667, N
452878, 1257.9944444444445, N
453179, 1258.8305555555555, N
453480, 1259.6666666666667, N
453812, 1260.588888888889, N
454109, 1261.4138888888888, N
454406, 1262.2388888888888, N
454713, 1263.0916666666667, N
455040, 1264.0, N
455344, 1264.8444444444444, N
455637, 1265.6583333333333, N
455930, 1266.4722222222222, N
456261, 1267.3916666666667, N
456564, 1268.2333333333333, N
456856, 1269.0444444444445, N
457155, 1269.875, N
457467, 1270.7416666666666, N
457789, 1271.6361111111112, N
458092, 1272.4777777777779, N
458405, 1273.3472222222222, N
458742, 1274.2833333333333, N
459064, 1275.1777777777777, N
459358, 1275.9944444444445, N
459646, 1276.7944444444445, N
459939, 1277.6083333333333, N
460230, 1278.4166666666667, N
460528, 1279.2444444444445, N
460821, 1280.0583333333334, N
461112, 1280.8666666666666, N
461417, 1281.713888888889, N
461718, 1282.55, N
462031, 1283.4194444444445, N
462337, 1284.2694444444444, N
462639, 1285.1083333333333, N
462948, 1285.9666666666667, N
463256, 1286.8222222222223, N
463571, 1287.6972222222223, N
463877, 1288.5472222222222, N
464021, 1288.9472222222223, ~
464173, 1289.3694444444445, N
464463, 1290.175, N
464743, 1290.9527777777778, N
465019, 1291.7194444444444, N
465299, 1292.4972222222223, N
465579, 1293.275, N
465850, 1294.0277777777778, N
466115, 1294.763888888889, N
466388, 1295.5222222222221, N
466661, 1296.2805555555556, N
466925, 1297.013888888889, N
467185, 1297.736111111111, N
467353, 1298.2027777777778, ~
467448, 1298.4666666666667, N
467713, 1299.2027777777778, N
467983, 1299.9527777777778, N
468259, 1300.7194444444444, N
468522, 1301.45, N
468787, 1302.1861111111111, N
469061, 1302.9472222222223, N
469329, 1303.6916666666666, N
469598, 1304.4388888888889, N
469863, 1305.175, N
470139, 1305.9416666666666, N
470419, 1306.7194444444444, N
470701, 1307.5027777777777, N
470975, 1308.263888888889, N
471272, 1309.088888888889, N
471624, 1310.0666666666666, N
472014, 1311.15, N
472411, 1312.2527777777777, N
472788, 1313.3, N
473168, 1314.3555555555556, N
473508, 1315.3, N
473849, 1316.2472222222223, N
474210, 1317.25, N
474551, 1318.1972222222223, N
474876, 1319.1, N
475179, 1319.9416666666666, N
475491, 1320.8083333333334, N
475815, 1321.7083333333333, N
476149, 1322.6361111111112, N
476453, 1323.4805555555556, N
476779, 1324.3861111111112, N
477125, 1325.3472222222222, N
477446, 1326.2388888888888, N
477750, 1327.0833333333333, N
478053, 1327.925, N
478376, 1328.8222222222223, N
478690, 1329.6944444444443, N
478973, 1330.4805555555556, N
479263, 1331.286111111111, N
479563, 1332.1194444444445, N
479858, 1332.9388888888889, N
480141, 1333.725, N
480442, 1334.5611111111111, N
480752, 1335.4222222222222, N
481046, 1336.2388888888888, N
481349, 1337.0805555555555, N
481664, 1337.9555555555555, N
481986, 1338.85, N
482295, 1339.7083333333333, N
482669, 1340.7472222222223, N
483066, 1341.85, N
483408, 1342.8, N
483760, 1343.7777777777778, N
484133, 1344.8138888888889, N
484504, 1345.8444444444444, N
484833, 1346.7583333333334, N
485147, 1347.6305555555555, N
485461, 1348.5027777777777, N
485799, 1349.4416666666666, N
486119, 1350.3305555555555, N
486424, 1351.1777777777777, N
486735, 1352.0416666666667, N
487067, 1352.963888888889, N
487397, 1353.8805555555555, N
487712, 1354.7555555555555, N
488057, 1355.713888888889, N
488431, 1356.7527777777777, N
488766, 1357.6833333333334, N
489082, 1358.5611111111111, N
489385, 1359.4027777777778, N
489698, 1360.2722222222221, N
489997, 1361.1027777777779, N
490307, 1361.963888888889, N
490646, 1362.9055555555556, N
490965, 1363.7916666666667, N
491277, 1364.6583333333333, N
491607, 1365.575, N
491971, 1366.5861111111112, N
492318, 1367.55, N
492626, 1368.4055555555556, N
492948, 1369.3, N
493291, 1370.2527777777777, N
493600, 1371.111111111111, N
493909, 1371.9694444444444, N
494226, 1372.85, N
494552, 1373.7555555555555, N
494871, 1374.6416666666667, N
495212, 1375.588888888889, N
495630, 1376.75, N
496009, 1377.8027777777777, N
496382, 1378.838888888889, N
496738, 1379.8277777777778, N
497078, 1380.7722222222221, N
497406, 1381.6833333333334, N
497720, 1382.5555555555557, N
498017, 1383.3805555555555, N
498314, 1384.2055555555555, N
498614, 1385.0388888888888, N
498925, 1385.9027777777778, N
499225, 1386.736111111111, N
499517, 1387.5472222222222, N
499846, 1388.4611111111112, N
500186, 1389.4055555555556, N
500493, 1390.2583333333334, N
500800, 1391.111111111111, N
501117, 1391.9916666666666, N
501453, 1392.925, N
501759, 1393.775, N
502051, 1394.5861111111112, N
502352, 1395.4222222222222, N
502659, 1396.275, N
502946, 1397.0722222222223, N
503231, 1397.8638888888888, N
503525, 1398.6805555555557, N
503830, 1399.5277777777778, N
504129, 1400.3583333333333, N
504416, 1401.1555555555556, N
504720, 1402.0, N
505052, 1402.9222222222222, N
505357, 1403.7694444444444, N
505654, 1404.5944444444444, N
505970, 1405.4722222222222, N
506278, 1406.3277777777778, N
506578, 1407.161111111111, N
506886, 1408.0166666666667, N
507200, 1408.888888888889, N
507512, 1409.7555555555555, N
507812, 1410.588888888889, N
508136, 1411.4888888888888, N
508449, 1412.3583333333333, N
508762, 1413.2277777777779, N
509105, 1414.1805555555557, N
509550, 1415.4166666666667, N
509924, 1416.4555555555555, N
510323, 1417.5638888888889, N
510697, 1418.6027777777779, N
511075, 1419.6527777777778, N
511464, 1420.7333333333333, N
511840, 1421.7777777777778, N
512207, 1422.7972222222222, N
512552, 1423.7555555555555, N
512930, 1424.8055555555557, N
513308, 1425.8555555555556, N
513648, 1426.8, N
514023, 1427.8416666666667, N
514393, 1428.8694444444445, N
514726, 1429.7944444444445, N
515038, 1430.661111111111, N
515360, 1431.5555555555557, N
515657, 1432.3805555555555, N
515942, 1433.1722222222222, N
516241, 1434.0027777777777, N
516560, 1434.888888888889, N
516859, 1435.7194444444444, N
517146, 1436.5166666666667, N
517441, 1437.3361111111112, N
517729, 1438.1361111111112, N
518018, 1438.9388888888889, N
518201, 1439.4472222222223, |
518298, 1439.7166666666667, N
518571, 1440.475, N
518846, 1441.2388888888888, N
519125, 1442.013888888889, N
519423, 1442.8416666666667, N
519712, 1443.6444444444444, N
519995, 1444.4305555555557, N
520294, 1445.2611111111112, N
520626, 1446.1833333333334, N
520922, 1447.0055555555555, N
521235, 1447.875, N
521597, 1448.8805555555555, N
521986, 1449.9611111111112, N
522312, 1450.8666666666666, N
522654, 1451.8166666666666, N
523012, 1452.8111111111111, N
523354, 1453.7611111111112, N
523657, 1454.6027777777779, N
523971, 1455.475, N
524310, 1456.4166666666667, N
524695, 1457.486111111111, N
525063, 1458.5083333333334, N
525379, 1459.3861111111112, N
525716, 1460.3222222222223, N
526124, 1461.4555555555555, N
526507, 1462.5194444444444, N
526850, 1463.4722222222222, N
527187, 1464.4083333333333, N
527529, 1465.3583333333333, N
527873, 1466.3138888888889, N
528191, 1467.1972222222223, N
528494, 1468.0388888888888, N
528808, 1468.911111111111, N
529157, 1469.8805555555555, N
529497, 1470.825, N
529819, 1471.7194444444444, N
530163, 1472.675, N
530598, 1473.8833333333334, N
530971, 1474.9194444444445, N
531334, 1475.9277777777777, N
531693, 1476.925, N
532042, 1477.8944444444444, N
532369, 1478.8027777777777, N
532677, 1479.6583333333333, N
532983, 1480.5083333333334, N
533306, 1481.4055555555556, N
533605, 1482.236111111111, N
533928, 1483.1333333333334, N
534259, 1484.0527777777777, N
534635, 1485.0972222222222, N
534992, 1486.088888888889, N
535398, 1487.2166666666667, N
535801, 1488.3361111111112, N
536172, 1489.3666666666666, N
536570, 1490.4722222222222, N
536952, 1491.5333333333333, N
537308, 1492.5222222222221, N
537684, 1493.5666666666666, N
538033, 1494.536111111111, N
538382, 1495.5055555555555, N
538701, 1496.3916666666667, N
539012, 1497.2555555555555, N
539312, 1498.088888888889, N
539611, 1498.9194444444445, N
539941, 1499.8361111111112, N
540298, 1500.8277777777778, N
540619, 1501.7194444444444, N
540977, 1502.713888888889, N
541306, 1503.6277777777777, N
541606, 1504.4611111111112, N
541907, 1505.2972222222222, N
542228, 1506.1888888888889, N
542593, 1507.2027777777778, N
542898, 1508.05, N
543199, 1508.8861111111112, N
543561, 1509.8916666666667, N
543916, 1510.8777777777777, N
544260, 1511.8333333333333, N
544676, 1512.9888888888888, N
545075, 1514.0972222222222, N
545424, 1515.0666666666666, N
545760, 1516.0, N
546113, 1516.9805555555556, N
546423, 1517.8416666666667, N
546720, 1518.6666666666667, N
547032, 1519.5333333333333, N
547330, 1520.361111111111, N
547632, 1521.2, N
547956, 1522.1, N
548284, 1523.0111111111112, N
548611, 1523.9194444444445, N
548913, 1524.7583333333334, N
549226, 1525.6277777777777, N
549554, 1526.5388888888888, N
549876, 1527.4333333333334, N
550180, 1528.2777777777778, N
550523, 1529.2305555555556, N
550829, 1530.0805555555555, N
551122, 1530.8944444444444, N
551416, 1531.7111111111112, N
551704, 1532.5111111111112, N
551987, 1533.2972222222222, N
552282, 1534.1166666666666, N
552570, 1534.9166666666667, N
552902, 1535.838888888889, N
553244, 1536.7888888888888, N
553558, 1537.661111111111, N
553880, 1538.5555555555557, N
554307, 1539.7416666666666, N
554709, 1540.8583333333333, N
555067, 1541.8527777777779, N
555452, 1542.9222222222222, N
555834, 1543.9833333333333, N
556185, 1544.9583333333333, N
556568, 1546.0222222222221, N
556941, 1547.0583333333334, N
557301, 1548.0583333333334, N
557695, 1549.1527777777778, N
558108, 1550.3, N
558471, 1551.3083333333334, N
558872, 1552.4222222222222, N
559259, 1553.4972222222223, N
559623, 1554.5083333333334, N
560019, 1555.6083333333333, N
560396, 1556.6555555555556, N
560755, 1557.6527777777778, N
561128, 1558.6888888888889, N
561506, 1559.7388888888888, N
561851, 1560.6972222222223, N
562181, 1561.6138888888888, N
562513, 1562.536111111111, N
562822, 1563.3944444444444, N
563125, 1564.236111111111, N
563425, 1565.0694444444443, N
563743, 1565.9527777777778, N
564065, 1566.8472222222222, N
564361, 1567.6694444444445, N
564660, 1568.5, N
564966, 1569.35, N
565275, 1570.2083333333333, N
565573, 1571.036111111111, N
565864, 1571.8444444444444, N
566146, 1572.6277777777777, N
566434, 1573.4277777777777, N
566728, 1574.2444444444445, N
567015, 1575.0416666666667, N
567308, 1575.8555555555556, N
567625, 1576.736111111111, N
567926, 1577.5722222222223, N
568233, 1578.425, N
568551, 1579.3083333333334, N
568893, 1580.2583333333334, N
569240, 1581.2222222222222, N
569552, 1582.088888888889, N
569883, 1583.0083333333334, N
570236, 1583.9888888888888, N
570669, 1585.1916666666666, N
571021, 1586.1694444444445, N
571329, 1587.025, N
571662, 1587.95, N
571979, 1588.8305555555555, N
572295, 1589.7083333333333, N
572605, 1590.5694444444443, N
572899, 1591.3861111111112, N
573226, 1592.2944444444445, N
573563, 1593.2305555555556, N
573886, 1594.1277777777777, N
574198, 1594.9944444444445, N
574506, 1595.85, N
574829, 1596.7472222222223, N
575177, 1597.713888888889, N
575491, 1598.5861111111112, N
575802, 1599.45, N
576126, 1600.35, N
576446, 1601.2388888888888, N
576769, 1602.1361111111112, N
577069, 1602.9694444444444, N
577358, 1603.7722222222221, N
577653, 1604.5916666666667, N
577950, 1605.4166666666667, N
578241, 1606.225, N
578532, 1607.0333333333333, N
578831, 1607.8638888888888, N
579139, 1608.7194444444444, N
579454, 1609.5944444444444, N
579758, 1610.4388888888889, N
580072, 1611.3111111111111, N
580529, 1612.5805555555555, N
580954, 1613.7611111111112, N
581359, 1614.8861111111112, N
581731, 1615.9194444444445, N
582124, 1617.0111111111112, N
582502, 1618.0611111111111, N
582868, 1619.0777777777778, N
583246, 1620.1277777777777, N
583608, 1621.1333333333334, N
583674, 1621.3166666666666, |
583779, 1621.6083333333333, |
583956, 1622.1, N
584331, 1623.1416666666667, N
584712, 1624.2, N
585071, 1625.1972222222223, N
585451, 1626.2527777777777, N
585804, 1627.2333333333333, |
585815, 1627.263888888889, N
586160, 1628.2222222222222, N
586494, 1629.15, N
586837, 1630.1027777777779, N
587157, 1630.9916666666666, N
587484, 1631.9, N
587919, 1633.1083333333333, N
588064, 1633.5111111111112, |
588284, 1634.1222222222223, N
588712, 1635.3111111111111, N
589085, 1636.3472222222222, N
589476, 1637.4333333333334, N
589864, 1638.5111111111112, N
590260, 1639.611111111111, N
590658, 1640.7166666666667, N
591016, 1641.7111111111112, N
591339, 1642.6083333333333, N
591345, 1642.625, |
591633, 1643.425, N
591904, 1644.1777777777777, N
592177, 1644.9361111111111, N
592446, 1645.6833333333334, N
592708, 1646.411111111111, N
592961, 1647.1138888888888, N
593217, 1647.825, N
593475, 1648.5416666666667, N
593732, 1649.2555555555555, N
593998, 1649.9944444444445, N
594250, 1650.6944444444443, N
594519, 1651.4416666666666, N
594806, 1652.2388888888888, N
595099, 1653.0527777777777, N
595372, 1653.8111111111111, N
595648, 1654.5777777777778, N
595944, 1655.4, N
596252, 1656.2555555555555, N
596556, 1657.1, N
596841, 1657.8916666666667, N
597132, 1658.7, N
597452, 1659.588888888889, N
597776, 1660.4888888888888, N
598089, 1661.3583333333333, N
598394, 1662.2055555555555, N
598716, 1663.1, N
599187, 1664.4083333333333, N
599558, 1665.4388888888889, N
599961, 1666.5583333333334, N
600409, 1667.8027777777777, N
600816, 1668.9333333333334, N
601197, 1669.9916666666666, N
601609, 1671.1361111111112, N
601983, 1672.175, N
602344, 1673.1777777777777, N
602751, 1674.3083333333334, N
603132, 1675.3666666666666, N
603485, 1676.3472222222222, N
603883, 1677.4527777777778, N
604312, 1678.6444444444444, N
604692, 1679.7, N
605126, 1680.9055555555556, N
605521, 1682.0027777777777, N
605905, 1683.0694444444443, N
606310, 1684.1944444444443, N
606679, 1685.2194444444444, N
607062, 1686.2833333333333, N
607449, 1687.3583333333333, N
607806, 1688.35, N
608162, 1689.338888888889, N
608542, 1690.3944444444444, N
608902, 1691.3944444444444, N
609253, 1692.3694444444445, N
609644, 1693.4555555555555, N
610074, 1694.65, N
610489, 1695.8027777777777, N
610871, 1696.8638888888888, N
611258, 1697.9388888888889, N
611666, 1699.0722222222223, N
612024, 1700.0666666666666, N
612347, 1700.963888888889, N
612695, 1701.9305555555557, N
613111, 1703.0861111111112, N
613506, 1704.1833333333334, N
613918, 1705.3277777777778, N
614299, 1706.3861111111112, N
614689, 1707.4694444444444, N
615050, 1708.4722222222222, N
615425, 1709.513888888889, N
615789, 1710.525, N
616125, 1711.4583333333333, N
616419, 1712.275, N
616738, 1713.161111111111, N
617077, 1714.1027777777779, N
617374, 1714.9277777777777, N
617672, 1715.7555555555555, N
617986, 1716.6277777777777, N
618295, 1717.486111111111, N
618587, 1718.2972222222222, N
618890, 1719.138888888889, N
619192, 1719.9777777777779, N
619490, 1720.8055555555557, N
619775, 1721.5972222222222, N
620054, 1722.3722222222223, N
620351, 1723.1972222222223, N
620656, 1724.0444444444445, N
620961, 1724.8916666666667, N
621239, 1725.6638888888888, N
621525, 1726.4583333333333, N
621817, 1727.2694444444444, N
622116, 1728.1, N
622414, 1728.9277777777777, N
622698, 1729.7166666666667, N
623003, 1730.5638888888889, N
623312, 1731.4222222222222, N
623609, 1732.2472222222223, N
623915, 1733.0972222222222, N
624202, 1733.8944444444444, N
624500, 1734.7222222222222, N
624791, 1735.5305555555556, N
625090, 1736.361111111111, N
625393, 1737.2027777777778, N
625693, 1738.036111111111, N
625991, 1738.8638888888888, N
626300, 1739.7222222222222, N
626610, 1740.5833333333333, N
626911, 1741.4194444444445, N
627211, 1742.2527777777777, N
627509, 1743.0805555555555, N
627811, 1743.9194444444445, N
628126, 1744.7944444444445, N
628419, 1745.6083333333333, N
628706, 1746.4055555555556, N
629010, 1747.25, N
629316, 1748.1, N
629624, 1748.9555555555555, N
629922, 1749.7833333333333, N
630218, 1750.6055555555556, N
630533, 1751.4805555555556, N
630857, 1752.3805555555555, N
631162, 1753.2277777777779, N
631454, 1754.0388888888888, N
631772, 1754.9222222222222, N
632107, 1755.8527777777779, N
632446, 1756.7944444444445, N
632777, 1757.713888888889, N
633231, 1758.975, N
633635, 1760.0972222222222, N
634011, 1761.1416666666667, N
634422, 1762.2833333333333, N
634798, 1763.3277777777778, N
635188, 1764.411111111111, N
635582, 1765.5055555555555, N
635949, 1766.525, N
636311, 1767.5305555555556, N
636677, 1768.5472222222222, N
637029, 1769.525, N
637418, 1770.6055555555556, N
637799, 1771.6638888888888, N
638155, 1772.6527777777778, N
638553, 1773.7583333333334, N
638908, 1774.7444444444445, N
639254, 1775.7055555555555, N
639627, 1776.7416666666666, N
640012, 1777.8111111111111, N
640363, 1778.786111111111, N
640769, 1779.9138888888888, N
641132, 1780.9222222222222, N
641512, 1781.9777777777779, N
641890, 1783.0277777777778, N
642234, 1783.9833333333333, N
642598, 1784.9944444444445, N
642961, 1786.0027777777777, N
643302, 1786.95, N
643613, 1787.8138888888889, N
643916, 1788.6555555555556, N
644215, 1789.486111111111, N
644506, 1790.2944444444445, N
644791, 1791.0861111111112, N
645094, 1791.9277777777777, N
645387, 1792.7416666666666, N
645677, 1793.5472222222222, N
645968, 1794.3555555555556, N
646249, 1795.1361111111112, N
646533, 1795.925, N
646829, 1796.7472222222223, N
647110, 1797.5277777777778, N
647395, 1798.3194444444443, N
647673, 1799.0916666666667, N
647939, 1799.8305555555555, N
648199, 1800.5527777777777, N
648472, 1801.3111111111111, N
648752, 1802.088888888889, N
649055, 1802.9305555555557, N
649357, 1803.7694444444444, N
649647, 1804.575, N
649955, 1805.4305555555557, N
