174, 0.48333333333333334, +
282, 0.7833333333333333, N
561, 1.5583333333333333, N
837, 2.325, N
1104, 3.066666666666667, N
1369, 3.8027777777777776, N
1639, 4.552777777777778, N
1909, 5.302777777777778, N
2180, 6.055555555555555, N
2447, 6.7972222222222225, N
2718, 7.55, N
2987, 8.297222222222222, N
3255, 9.041666666666666, N
3529, 9.802777777777777, N
3796, 10.544444444444444, N
4067, 11.297222222222222, N
4344, 12.066666666666666, N
4614, 12.816666666666666, N
4886, 13.572222222222223, N
5164, 14.344444444444445, N
5434, 15.094444444444445, N
5706, 15.85, N
5977, 16.602777777777778, N
6254, 17.372222222222224, N
6532, 18.144444444444446, N
6802, 18.894444444444446, N
7085, 19.680555555555557, N
7360, 20.444444444444443, N
7633, 21.20277777777778, N
7910, 21.97222222222222, N
8183, 22.730555555555554, N
8457, 23.491666666666667, N
8738, 24.272222222222222, N
9010, 25.02777777777778, N
9283, 25.78611111111111, N
9561, 26.558333333333334, N
9831, 27.308333333333334, N
10101, 28.058333333333334, N
10372, 28.81111111111111, N
10643, 29.56388888888889, N
10918, 30.32777777777778, N
11188, 31.07777777777778, N
11460, 31.833333333333332, N
11734, 32.59444444444444, N
12012, 33.36666666666667, N
12283, 34.11944444444445, N
12551, 34.86388888888889, N
12825, 35.625, N
13112, 36.422222222222224, N
13387, 37.18611111111111, N
13666, 37.96111111111111, N
13950, 38.75, N
14221, 39.50277777777778, N
14497, 40.269444444444446, N
14772, 41.03333333333333, N
15045, 41.791666666666664, N
15319, 42.55277777777778, N
15590, 43.30555555555556, N
15863, 44.06388888888889, N
16137, 44.825, N
16415, 45.59722222222222, N
16686, 46.35, N
16953, 47.09166666666667, N
17229, 47.858333333333334, N
17512, 48.644444444444446, N
17789, 49.41388888888889, N
18069, 50.19166666666667, N
18351, 50.975, N
18632, 51.75555555555555, N
18913, 52.53611111111111, N
19188, 53.3, N
19469, 54.080555555555556, N
19753, 54.86944444444445, N
20026, 55.62777777777778, N
20305, 56.40277777777778, N
20588, 57.18888888888889, N
20865, 57.958333333333336, N
21145, 58.736111111111114, N
21421, 59.50277777777778, N
21699, 60.275, N
21984, 61.06666666666667, N
22263, 61.84166666666667, N
22549, 62.63611111111111, N
22825, 63.40277777777778, N
23097, 64.15833333333333, N
23379, 64.94166666666666, N
23654, 65.70555555555555, N
23930, 66.47222222222223, N
24207, 67.24166666666666, N
24481, 68.00277777777778, N
24762, 68.78333333333333, N
25043, 69.56388888888888, N
25311, 70.30833333333334, N
25591, 71.08611111111111, N
25867, 71.85277777777777, N
26150, 72.63888888888889, N
26423, 73.39722222222223, N
26697, 74.15833333333333, N
26981, 74.94722222222222, N
27254, 75.70555555555555, N
27527, 76.46388888888889, N
27802, 77.22777777777777, N
28075, 77.98611111111111, N
28355, 78.76388888888889, N
28625, 79.51388888888889, N
28895, 80.26388888888889, N
29174, 81.03888888888889, N
29446, 81.79444444444445, N
29714, 82.53888888888889, N
29987, 83.29722222222222, N
30258, 84.05, N
30538, 84.82777777777778, N
30813, 85.59166666666667, N
31084, 86.34444444444445, N
31365, 87.125, N
31643, 87.89722222222223, N
31912, 88.64444444444445, N
32186, 89.40555555555555, N
32458, 90.16111111111111, N
32738, 90.93888888888888, N
33008, 91.68888888888888, N
33281, 92.44722222222222, N
33566, 93.2388888888889, N
33843, 94.00833333333334, N
34119, 94.775, N
34397, 95.54722222222222, N
34676, 96.32222222222222, N
34958, 97.10555555555555, N
35132, 97.58888888888889, V
35516, 98.65555555555555, N
35793, 99.425, N
35967, 99.90833333333333, V
36343, 100.95277777777778, N
36617, 101.71388888888889, N
36888, 102.46666666666667, N
37168, 103.24444444444444, N
37440, 104.0, N
37719, 104.775, N
37994, 105.53888888888889, N
38265, 106.29166666666667, N
38540, 107.05555555555556, N
38813, 107.81388888888888, N
39089, 108.58055555555555, N
39368, 109.35555555555555, N
39644, 110.12222222222222, N
39925, 110.90277777777777, N
40202, 111.67222222222222, N
40481, 112.44722222222222, N
40758, 113.21666666666667, N
41032, 113.97777777777777, N
41312, 114.75555555555556, N
41593, 115.53611111111111, N
41868, 116.3, N
42145, 117.06944444444444, N
42422, 117.83888888888889, N
42693, 118.59166666666667, N
42967, 119.35277777777777, N
43241, 120.1138888888889, N
43518, 120.88333333333334, N
43802, 121.67222222222222, N
44078, 122.43888888888888, N
44359, 123.21944444444445, N
44637, 123.99166666666666, N
44910, 124.75, N
45187, 125.51944444444445, N
45461, 126.28055555555555, N
45739, 127.05277777777778, N
46019, 127.83055555555555, N
46294, 128.59444444444443, N
46579, 129.38611111111112, N
46858, 130.1611111111111, N
47134, 130.92777777777778, N
47413, 131.70277777777778, N
47690, 132.47222222222223, N
47970, 133.25, N
48251, 134.03055555555557, N
48527, 134.79722222222222, N
48802, 135.5611111111111, N
49080, 136.33333333333334, N
49352, 137.0888888888889, N
49624, 137.84444444444443, N
49898, 138.60555555555555, N
50171, 139.36388888888888, N
50444, 140.12222222222223, N
50714, 140.87222222222223, N
50997, 141.65833333333333, N
51268, 142.4111111111111, N
51535, 143.15277777777777, N
51816, 143.93333333333334, N
52083, 144.675, N
52364, 145.45555555555555, N
52643, 146.23055555555555, N
52914, 146.98333333333332, N
53197, 147.76944444444445, N
53474, 148.5388888888889, N
53644, 149.01111111111112, V
54014, 150.0388888888889, N
54288, 150.8, N
54559, 151.55277777777778, N
54831, 152.30833333333334, N
55102, 153.0611111111111, N
55378, 153.82777777777778, N
55648, 154.57777777777778, N
55916, 155.32222222222222, N
56183, 156.0638888888889, V
56463, 156.84166666666667, N
56740, 157.61111111111111, N
56930, 158.13888888888889, V
57281, 159.11388888888888, N
57559, 159.88611111111112, N
57831, 160.64166666666668, N
58094, 161.37222222222223, N
58361, 162.11388888888888, N
58629, 162.85833333333332, N
58897, 163.6027777777778, N
59162, 164.3388888888889, N
59432, 165.0888888888889, N
59707, 165.8527777777778, N
59972, 166.5888888888889, N
60239, 167.33055555555555, N
60514, 168.09444444444443, N
60780, 168.83333333333334, N
61057, 169.6027777777778, N
61331, 170.36388888888888, N
61597, 171.1027777777778, N
61875, 171.875, N
62143, 172.61944444444444, N
62408, 173.35555555555555, N
62679, 174.10833333333332, N
62948, 174.85555555555555, N
63214, 175.59444444444443, N
63485, 176.34722222222223, N
63756, 177.1, N
64031, 177.86388888888888, N
64302, 178.61666666666667, N
64567, 179.3527777777778, N
64842, 180.11666666666667, N
65111, 180.86388888888888, N
65388, 181.63333333333333, N
65660, 182.38888888888889, N
65930, 183.13888888888889, N
66210, 183.91666666666666, N
66480, 184.66666666666666, N
66748, 185.4111111111111, N
67018, 186.1611111111111, N
67288, 186.9111111111111, N
67560, 187.66666666666666, N
67833, 188.425, N
68103, 189.175, N
68381, 189.94722222222222, N
68651, 190.69722222222222, N
68916, 191.43333333333334, N
69193, 192.20277777777778, N
69461, 192.94722222222222, N
69737, 193.7138888888889, N
70010, 194.47222222222223, N
70279, 195.21944444444443, N
70558, 195.99444444444444, N
70829, 196.74722222222223, N
71098, 197.49444444444444, N
71369, 198.24722222222223, N
71637, 198.99166666666667, N
71907, 199.74166666666667, N
72181, 200.50277777777777, N
72449, 201.24722222222223, N
72718, 201.99444444444444, N
72989, 202.74722222222223, N
73258, 203.49444444444444, N
73528, 204.24444444444444, N
73791, 204.975, N
74064, 205.73333333333332, N
74339, 206.49722222222223, N
74602, 207.2277777777778, N
74774, 207.70555555555555, V
75145, 208.73611111111111, N
75417, 209.49166666666667, N
75682, 210.2277777777778, N
75950, 210.97222222222223, N
76214, 211.70555555555555, N
76487, 212.4638888888889, N
76754, 213.20555555555555, N
77017, 213.9361111111111, N
77293, 214.70277777777778, N
77560, 215.44444444444446, N
77824, 216.17777777777778, N
78090, 216.91666666666666, N
78360, 217.66666666666666, N
78630, 218.41666666666666, N
78897, 219.15833333333333, N
79163, 219.8972222222222, N
79438, 220.6611111111111, N
79704, 221.4, N
79966, 222.12777777777777, N
80238, 222.88333333333333, N
80503, 223.61944444444444, N
80768, 224.35555555555555, N
81039, 225.10833333333332, N
81304, 225.84444444444443, N
81574, 226.59444444444443, N
81844, 227.34444444444443, N
82110, 228.08333333333334, N
82377, 228.825, N
82646, 229.57222222222222, N
82913, 230.3138888888889, N
83183, 231.0638888888889, N
83448, 231.8, N
83720, 232.55555555555554, N
83989, 233.30277777777778, N
84256, 234.04444444444445, N
84523, 234.7861111111111, N
84784, 235.51111111111112, N
85052, 236.25555555555556, N
85326, 237.01666666666668, N
85592, 237.75555555555556, N
85859, 238.49722222222223, N
86133, 239.25833333333333, N
86403, 240.00833333333333, N
86669, 240.74722222222223, N
86940, 241.5, N
87209, 242.24722222222223, N
87485, 243.01388888888889, N
87753, 243.75833333333333, N
88026, 244.51666666666668, N
88301, 245.28055555555557, N
88574, 246.0388888888889, N
88845, 246.79166666666666, N
89110, 247.52777777777777, N
89384, 248.2888888888889, N
89661, 249.05833333333334, N
89932, 249.8111111111111, N
90205, 250.56944444444446, N
90482, 251.3388888888889, N
90757, 252.1027777777778, N
91031, 252.86388888888888, N
91305, 253.625, N
91579, 254.38611111111112, N
91857, 255.15833333333333, N
92129, 255.9138888888889, N
92405, 256.68055555555554, N
92679, 257.44166666666666, N
92946, 258.18333333333334, N
93220, 258.94444444444446, N
93483, 259.675, N
93750, 260.4166666666667, N
94025, 261.18055555555554, N
94290, 261.9166666666667, N
94566, 262.68333333333334, N
94753, 263.2027777777778, V
95105, 264.18055555555554, N
95381, 264.9472222222222, N
95553, 265.425, V
95920, 266.44444444444446, N
96109, 266.96944444444443, V
96469, 267.96944444444443, N
96737, 268.7138888888889, N
97009, 269.46944444444443, N
97272, 270.2, N
97542, 270.95, N
97802, 271.6722222222222, N
98070, 272.4166666666667, N
98344, 273.1777777777778, N
98610, 273.9166666666667, N
98878, 274.6611111111111, N
99151, 275.4194444444444, N
99423, 276.175, N
99699, 276.94166666666666, N
99973, 277.7027777777778, N
100251, 278.475, N
100535, 279.2638888888889, N
100815, 280.0416666666667, N
101092, 280.81111111111113, N
101376, 281.6, N
101656, 282.3777777777778, N
101932, 283.14444444444445, N
102204, 283.9, N
102483, 284.675, N
102765, 285.4583333333333, N
103037, 286.2138888888889, N
103317, 286.9916666666667, N
103596, 287.76666666666665, N
103873, 288.5361111111111, N
104152, 289.31111111111113, N
104329, 289.8027777777778, V
104693, 290.81388888888887, N
104970, 291.5833333333333, N
105238, 292.3277777777778, N
105407, 292.7972222222222, V
105773, 293.81388888888887, N
106040, 294.55555555555554, N
106300, 295.27777777777777, N
106563, 296.0083333333333, N
106822, 296.72777777777776, N
107093, 297.48055555555555, N
107356, 298.2111111111111, N
107624, 298.9555555555556, N
107905, 299.7361111111111, N
108184, 300.5111111111111, N
108462, 301.28333333333336, N
108743, 302.06388888888887, N
109023, 302.84166666666664, N
109312, 303.64444444444445, N
109589, 304.4138888888889, N
109866, 305.18333333333334, N
110153, 305.98055555555555, N
110431, 306.7527777777778, N
110699, 307.4972222222222, N
110976, 308.26666666666665, N
111249, 309.025, N
111530, 309.80555555555554, N
111805, 310.56944444444446, N
112079, 311.3305555555556, N
112361, 312.1138888888889, N
112639, 312.8861111111111, N
112913, 313.64722222222224, N
113185, 314.40277777777777, N
113457, 315.15833333333336, N
113735, 315.93055555555554, N
114003, 316.675, N
114273, 317.425, N
114547, 318.18611111111113, N
114820, 318.94444444444446, N
115084, 319.6777777777778, N
115355, 320.43055555555554, N
115632, 321.2, N
115910, 321.97222222222223, N
116183, 322.73055555555555, N
116458, 323.49444444444447, N
116737, 324.26944444444445, N
117008, 325.02222222222224, N
117283, 325.7861111111111, N
117550, 326.52777777777777, N
117816, 327.26666666666665, N
118093, 328.0361111111111, N
118357, 328.76944444444445, N
118620, 329.5, N
118894, 330.2611111111111, N
119161, 331.0027777777778, N
119423, 331.73055555555555, N
119689, 332.46944444444443, N
119954, 333.2055555555556, N
120227, 333.9638888888889, N
120494, 334.7055555555556, N
120758, 335.43888888888887, N
121030, 336.19444444444446, N
121302, 336.95, N
121570, 337.69444444444446, N
121836, 338.43333333333334, N
122105, 339.18055555555554, N
122381, 339.9472222222222, N
122645, 340.68055555555554, N
122911, 341.4194444444444, N
123185, 342.18055555555554, N
123453, 342.925, N
123714, 343.65, N
123981, 344.39166666666665, N
124249, 345.1361111111111, N
124520, 345.8888888888889, N
124787, 346.63055555555553, N
125052, 347.3666666666667, N
125328, 348.1333333333333, N
125598, 348.8833333333333, N
125781, 349.39166666666665, V
126132, 350.3666666666667, N
126399, 351.10833333333335, N
126672, 351.8666666666667, N
126935, 352.59722222222223, N
127199, 353.3305555555556, N
127472, 354.0888888888889, N
127739, 354.8305555555556, N
128002, 355.56111111111113, N
128276, 356.3222222222222, N
128546, 357.0722222222222, N
128819, 357.8305555555556, N
129093, 358.59166666666664, N
129363, 359.34166666666664, N
129639, 360.10833333333335, N
129911, 360.8638888888889, N
130180, 361.6111111111111, N
130453, 362.36944444444447, N
130721, 363.1138888888889, N
130997, 363.88055555555553, N
131273, 364.64722222222224, N
131543, 365.39722222222224, N
131820, 366.1666666666667, N
132021, 366.725, V
132355, 367.65277777777777, N
132629, 368.4138888888889, N
132898, 369.1611111111111, N
133170, 369.9166666666667, N
133441, 370.6694444444444, N
133708, 371.4111111111111, N
133985, 372.18055555555554, N
134257, 372.93611111111113, N
134525, 373.68055555555554, N
134698, 374.1611111111111, V
135063, 375.175, N
135336, 375.93333333333334, N
135609, 376.69166666666666, N
135877, 377.43611111111113, N
136148, 378.18888888888887, N
136420, 378.94444444444446, N
136688, 379.68888888888887, N
136962, 380.45, N
137226, 381.18333333333334, N
137493, 381.925, N
137771, 382.6972222222222, N
138035, 383.43055555555554, N
138303, 384.175, N
138577, 384.93611111111113, N
138849, 385.69166666666666, N
139108, 386.4111111111111, N
139375, 387.15277777777777, N
139641, 387.89166666666665, N
139912, 388.64444444444445, N
140177, 389.38055555555553, N
140442, 390.1166666666667, N
140715, 390.875, N
140895, 391.375, V
141247, 392.35277777777776, N
141517, 393.10277777777776, N
141786, 393.85, N
142061, 394.6138888888889, N
142329, 395.35833333333335, N
142598, 396.10555555555555, N
142880, 396.8888888888889, N
143153, 397.64722222222224, N
143420, 398.3888888888889, N
143693, 399.14722222222224, N
143963, 399.89722222222224, N
144238, 400.6611111111111, N
144509, 401.4138888888889, N
144776, 402.15555555555557, N
145053, 402.925, N
145317, 403.65833333333336, N
145578, 404.3833333333333, N
145845, 405.125, N
146109, 405.85833333333335, N
146377, 406.60277777777776, N
146644, 407.34444444444443, N
146907, 408.075, N
147178, 408.8277777777778, N
147447, 409.575, N
147706, 410.2944444444444, N
147979, 411.0527777777778, N
148244, 411.7888888888889, N
148514, 412.5388888888889, N
148791, 413.30833333333334, N
148981, 413.8361111111111, V
149333, 414.81388888888887, N
149604, 415.56666666666666, N
149874, 416.31666666666666, N
150063, 416.84166666666664, V
150407, 417.7972222222222, N
150680, 418.55555555555554, N
150950, 419.30555555555554, N
151217, 420.0472222222222, N
151493, 420.81388888888887, N
151766, 421.5722222222222, N
152031, 422.30833333333334, N
152303, 423.06388888888887, N
152569, 423.8027777777778, N
152748, 424.3, V
153107, 425.2972222222222, N
153374, 426.0388888888889, N
153643, 426.7861111111111, N
153822, 427.28333333333336, V
154166, 428.2388888888889, N
154433, 428.98055555555555, N
154693, 429.7027777777778, N
154955, 430.43055555555554, N
155226, 431.18333333333334, N
155488, 431.9111111111111, N
155762, 432.6722222222222, N
156041, 433.4472222222222, N
156312, 434.2, N
156504, 434.73333333333335, V
156854, 435.7055555555556, N
157120, 436.44444444444446, N
157394, 437.2055555555556, N
157660, 437.94444444444446, N
157922, 438.6722222222222, N
158189, 439.4138888888889, N
158455, 440.15277777777777, N
158715, 440.875, N
158976, 441.6, N
159239, 442.3305555555556, N
159509, 443.0805555555556, N
159766, 443.7944444444444, N
160031, 444.53055555555557, N
160304, 445.2888888888889, N
160568, 446.02222222222224, N
160828, 446.74444444444447, N
161093, 447.48055555555555, N
161353, 448.2027777777778, N
161617, 448.93611111111113, N
161883, 449.675, N
162140, 450.3888888888889, N
162409, 451.1361111111111, N
162672, 451.8666666666667, N
162932, 452.5888888888889, N
163198, 453.3277777777778, N
163464, 454.06666666666666, N
163734, 454.81666666666666, N
164002, 455.56111111111113, N
164269, 456.3027777777778, N
164541, 457.05833333333334, N
164810, 457.80555555555554, N
164994, 458.31666666666666, V
165338, 459.27222222222224, N
165600, 460.0, N
165859, 460.71944444444443, N
166127, 461.4638888888889, N
166383, 462.175, N
166640, 462.8888888888889, N
166907, 463.63055555555553, N
167169, 464.35833333333335, N
167425, 465.06944444444446, N
167689, 465.8027777777778, N
167950, 466.52777777777777, N
168133, 467.0361111111111, V
168479, 467.9972222222222, N
168744, 468.73333333333335, N
169014, 469.48333333333335, N
169276, 470.2111111111111, N
169534, 470.9277777777778, N
169740, 471.5, V
170058, 472.3833333333333, N
170319, 473.10833333333335, N
170588, 473.85555555555555, N
170840, 474.55555555555554, N
171100, 475.27777777777777, N
171366, 476.01666666666665, N
171625, 476.7361111111111, N
171883, 477.4527777777778, N
172145, 478.18055555555554, N
172408, 478.9111111111111, N
172674, 479.65, N
172939, 480.3861111111111, N
173204, 481.1222222222222, N
173392, 481.64444444444445, V
173742, 482.6166666666667, N
174004, 483.34444444444443, N
174268, 484.0777777777778, N
174528, 484.8, N
174797, 485.5472222222222, N
175060, 486.27777777777777, N
175320, 487.0, N
175588, 487.74444444444447, N
175853, 488.48055555555555, N
176113, 489.2027777777778, N
176381, 489.9472222222222, N
176559, 490.44166666666666, V
176907, 491.40833333333336, N
177179, 492.1638888888889, N
177442, 492.89444444444445, N
177711, 493.64166666666665, N
177977, 494.38055555555553, N
178243, 495.11944444444447, N
178507, 495.85277777777776, N
178702, 496.39444444444445, V
179034, 497.31666666666666, N
179306, 498.0722222222222, N
179565, 498.7916666666667, N
179827, 499.51944444444445, N
180097, 500.26944444444445, N
180357, 500.9916666666667, N
180622, 501.72777777777776, N
180886, 502.4611111111111, N
181147, 503.18611111111113, N
181336, 503.7111111111111, V
181686, 504.68333333333334, N
181952, 505.4222222222222, N
182224, 506.1777777777778, N
182496, 506.93333333333334, N
182760, 507.6666666666667, N
183029, 508.4138888888889, N
183302, 509.1722222222222, N
183485, 509.68055555555554, V
183852, 510.7, N
184124, 511.4555555555556, N
184408, 512.2444444444444, N
184593, 512.7583333333333, V
184950, 513.75, N
185223, 514.5083333333333, N
185493, 515.2583333333333, N
185768, 516.0222222222222, N
186040, 516.7777777777778, N
186312, 517.5333333333333, N
186585, 518.2916666666666, N
186859, 519.0527777777778, N
187122, 519.7833333333333, N
187388, 520.5222222222222, N
187658, 521.2722222222222, N
187931, 522.0305555555556, N
188193, 522.7583333333333, N
188456, 523.4888888888889, N
188730, 524.25, N
188996, 524.9888888888889, N
189260, 525.7222222222222, N
189527, 526.4638888888888, N
189791, 527.1972222222222, N
190064, 527.9555555555555, N
190332, 528.7, N
190510, 529.1944444444445, V
190870, 530.1944444444445, N
191139, 530.9416666666667, N
191398, 531.6611111111112, N
191662, 532.3944444444444, N
191923, 533.1194444444444, N
192195, 533.875, N
192456, 534.6, N
192717, 535.325, N
192990, 536.0833333333334, N
193255, 536.8194444444445, N
193513, 537.5361111111112, N
193783, 538.2861111111112, N
194048, 539.0222222222222, N
194311, 539.7527777777777, N
194585, 540.5138888888889, N
194850, 541.25, N
195118, 541.9944444444444, N
195388, 542.7444444444444, N
195655, 543.4861111111111, N
195847, 544.0194444444444, V
196182, 544.95, N
196454, 545.7055555555555, N
196718, 546.4388888888889, N
196982, 547.1722222222222, N
197245, 547.9027777777778, N
197513, 548.6472222222222, N
197779, 549.3861111111111, N
198043, 550.1194444444444, N
198307, 550.8527777777778, N
198569, 551.5805555555555, N
198842, 552.3388888888888, N
199108, 553.0777777777778, N
199374, 553.8166666666667, N
199557, 554.325, V
199914, 555.3166666666667, N
200175, 556.0416666666666, N
200443, 556.7861111111112, N
200707, 557.5194444444444, N
200972, 558.2555555555556, N
201235, 558.9861111111111, N
201498, 559.7166666666667, N
201768, 560.4666666666667, N
202032, 561.2, N
202298, 561.9388888888889, N
202570, 562.6944444444445, N
202836, 563.4333333333333, N
203109, 564.1916666666667, N
203384, 564.9555555555555, N
203655, 565.7083333333334, N
203836, 566.2111111111111, V
204207, 567.2416666666667, N
204480, 568.0, N
204757, 568.7694444444444, N
205030, 569.5277777777778, N
205303, 570.2861111111112, N
205485, 570.7916666666666, V
205853, 571.8138888888889, N
206137, 572.6027777777778, N
206349, 573.1916666666667, V
206688, 574.1333333333333, N
206965, 574.9027777777778, N
207237, 575.6583333333333, N
207513, 576.425, N
207791, 577.1972222222222, N
208065, 577.9583333333334, N
208350, 578.75, N
208526, 579.2388888888889, V
208898, 580.2722222222222, N
209179, 581.0527777777778, N
209456, 581.8222222222222, N
209636, 582.3222222222222, V
210004, 583.3444444444444, N
210278, 584.1055555555556, N
210555, 584.875, N
210744, 585.4, V
211094, 586.3722222222223, N
211364, 587.1222222222223, N
211633, 587.8694444444444, N
211909, 588.6361111111111, N
212175, 589.375, N
212439, 590.1083333333333, N
212716, 590.8777777777777, N
212977, 591.6027777777778, N
213236, 592.3222222222222, N
213418, 592.8277777777778, V
213764, 593.7888888888889, N
214029, 594.525, N
214293, 595.2583333333333, N
214553, 595.9805555555556, N
214822, 596.7277777777778, N
215086, 597.4611111111111, N
215344, 598.1777777777778, N
215526, 598.6833333333333, V
215870, 599.6388888888889, N
216140, 600.3888888888889, N
216407, 601.1305555555556, N
216672, 601.8666666666667, N
216942, 602.6166666666667, N
217212, 603.3666666666667, N
217479, 604.1083333333333, N
217660, 604.6111111111111, V
218031, 605.6416666666667, N
218313, 606.425, N
218527, 607.0194444444444, V
218661, 607.3916666666667, V
219051, 608.475, N
219340, 609.2777777777778, N
219623, 610.0638888888889, N
219806, 610.5722222222222, V
220176, 611.6, N
220465, 612.4027777777778, N
220751, 613.1972222222222, N
220932, 613.7, V
221315, 614.7638888888889, N
221594, 615.5388888888889, N
221865, 616.2916666666666, N
222042, 616.7833333333333, V
222413, 617.8138888888889, N
222687, 618.575, N
222962, 619.3388888888888, N
223236, 620.1, N
223521, 620.8916666666667, N
223801, 621.6694444444445, N
224080, 622.4444444444445, N
224370, 623.25, N
224653, 624.0361111111112, N
224947, 624.8527777777778, N
225232, 625.6444444444444, N
225517, 626.4361111111111, N
225809, 627.2472222222223, N
226089, 628.025, N
226365, 628.7916666666666, N
226646, 629.5722222222222, N
226913, 630.3138888888889, N
227192, 631.0888888888888, N
227460, 631.8333333333334, N
227723, 632.5638888888889, N
228000, 633.3333333333334, N
228269, 634.0805555555555, N
228532, 634.8111111111111, N
228802, 635.5611111111111, N
229074, 636.3166666666667, N
229265, 636.8472222222222, V
229621, 637.8361111111111, N
229890, 638.5833333333334, N
230167, 639.3527777777778, N
230437, 640.1027777777778, N
230699, 640.8305555555555, N
230970, 641.5833333333334, N
231235, 642.3194444444445, N
231514, 643.0944444444444, N
231789, 643.8583333333333, N
232060, 644.6111111111111, N
232347, 645.4083333333333, N
232525, 645.9027777777778, V
232901, 646.9472222222222, N
233182, 647.7277777777778, N
233465, 648.5138888888889, N
233651, 649.0305555555556, V
234026, 650.0722222222222, N
234307, 650.8527777777778, N
234592, 651.6444444444444, N
234873, 652.425, N
235146, 653.1833333333333, N
235427, 653.9638888888888, N
235707, 654.7416666666667, N
236000, 655.5555555555555, N
236278, 656.3277777777778, N
236564, 657.1222222222223, N
236857, 657.9361111111111, N
237140, 658.7222222222222, N
237420, 659.5, N
237700, 660.2777777777778, N
237976, 661.0444444444445, N
238260, 661.8333333333334, N
238538, 662.6055555555556, N
238814, 663.3722222222223, N
239090, 664.1388888888889, N
239272, 664.6444444444444, V
239638, 665.6611111111112, N
239910, 666.4166666666666, N
240186, 667.1833333333333, N
240461, 667.9472222222222, N
240731, 668.6972222222222, N
241013, 669.4805555555556, N
241285, 670.2361111111111, N
241557, 670.9916666666667, N
241835, 671.7638888888889, N
242111, 672.5305555555556, N
242391, 673.3083333333333, N
242670, 674.0833333333334, N
242850, 674.5833333333334, V
243223, 675.6194444444444, N
243497, 676.3805555555556, N
243768, 677.1333333333333, N
244043, 677.8972222222222, N
244309, 678.6361111111111, N
244490, 679.1388888888889, V
244850, 680.1388888888889, N
245117, 680.8805555555556, N
245391, 681.6416666666667, N
245659, 682.3861111111111, N
245921, 683.1138888888889, N
246192, 683.8666666666667, N
246462, 684.6166666666667, N
246736, 685.3777777777777, N
247013, 686.1472222222222, N
247287, 686.9083333333333, N
247563, 687.675, N
247842, 688.45, N
248113, 689.2027777777778, N
248387, 689.9638888888888, N
248662, 690.7277777777778, N
248841, 691.225, V
249208, 692.2444444444444, N
249482, 693.0055555555556, N
249765, 693.7916666666666, N
250035, 694.5416666666666, N
250303, 695.2861111111112, N
250580, 696.0555555555555, N
250853, 696.8138888888889, N
251137, 697.6027777777778, N
251412, 698.3666666666667, N
251589, 698.8583333333333, V
251959, 699.8861111111111, N
252235, 700.6527777777778, N
252499, 701.3861111111111, N
252771, 702.1416666666667, N
253040, 702.8888888888889, N
253313, 703.6472222222222, N
253586, 704.4055555555556, N
253857, 705.1583333333333, N
254141, 705.9472222222222, N
254419, 706.7194444444444, N
254693, 707.4805555555556, N
254975, 708.2638888888889, N
255257, 709.0472222222222, N
255549, 709.8583333333333, N
255828, 710.6333333333333, N
256110, 711.4166666666666, N
256400, 712.2222222222222, N
256683, 713.0083333333333, N
256964, 713.7888888888889, N
257243, 714.5638888888889, N
257524, 715.3444444444444, N
257809, 716.1361111111111, N
258088, 716.9111111111112, N
258372, 717.7, N
258652, 718.4777777777778, N
258933, 719.2583333333333, N
259212, 720.0333333333333, N
259487, 720.7972222222222, N
259664, 721.2888888888889, V
260049, 722.3583333333333, N
260324, 723.1222222222223, N
260601, 723.8916666666667, N
260882, 724.6722222222222, N
261156, 725.4333333333333, N
261334, 725.9277777777778, V
261705, 726.9583333333334, N
261978, 727.7166666666667, N
262260, 728.5, N
262534, 729.2611111111111, N
262812, 730.0333333333333, N
262990, 730.5277777777778, V
263364, 731.5666666666667, N
263645, 732.3472222222222, N
263920, 733.1111111111111, N
264106, 733.6277777777777, V
264479, 734.6638888888889, N
264756, 735.4333333333333, N
265041, 736.225, N
265318, 736.9944444444444, N
265592, 737.7555555555556, N
265875, 738.5416666666666, N
266159, 739.3305555555555, N
266445, 740.125, N
266737, 740.9361111111111, N
267028, 741.7444444444444, N
267321, 742.5583333333333, N
267612, 743.3666666666667, N
267904, 744.1777777777778, N
268188, 744.9666666666667, N
268477, 745.7694444444444, N
268771, 746.5861111111111, N
269050, 747.3611111111111, N
269334, 748.15, N
269623, 748.9527777777778, N
269899, 749.7194444444444, N
270182, 750.5055555555556, N
270463, 751.2861111111112, N
270745, 752.0694444444445, N
271029, 752.8583333333333, N
271311, 753.6416666666667, N
271600, 754.4444444444445, N
271883, 755.2305555555556, N
272166, 756.0166666666667, N
272451, 756.8083333333333, N
272739, 757.6083333333333, N
273033, 758.425, N
273240, 759.0, V
273593, 759.9805555555556, N
273885, 760.7916666666666, N
274166, 761.5722222222222, N
274441, 762.3361111111111, N
274719, 763.1083333333333, N
274999, 763.8861111111111, N
275283, 764.675, N
275564, 765.4555555555555, N
275852, 766.2555555555556, N
276134, 767.0388888888889, N
276413, 767.8138888888889, N
276702, 768.6166666666667, N
276983, 769.3972222222222, N
277274, 770.2055555555555, N
277556, 770.9888888888889, N
277831, 771.7527777777777, N
278124, 772.5666666666667, N
278407, 773.3527777777778, N
278680, 774.1111111111111, N
278961, 774.8916666666667, N
279241, 775.6694444444445, N
279527, 776.4638888888888, N
279804, 777.2333333333333, N
280084, 778.0111111111111, N
280364, 778.7888888888889, N
280643, 779.5638888888889, N
280920, 780.3333333333334, N
281190, 781.0833333333334, N
281471, 781.8638888888889, N
281753, 782.6472222222222, N
282022, 783.3944444444444, N
282192, 783.8666666666667, V
282573, 784.925, N
282842, 785.6722222222222, N
283118, 786.4388888888889, N
283388, 787.1888888888889, N
283655, 787.9305555555555, N
283930, 788.6944444444445, N
284204, 789.4555555555555, N
284473, 790.2027777777778, N
284748, 790.9666666666667, N
285022, 791.7277777777778, N
285297, 792.4916666666667, N
285570, 793.25, N
285851, 794.0305555555556, N
286132, 794.8111111111111, N
286406, 795.5722222222222, N
286691, 796.3638888888889, N
286969, 797.1361111111111, N
287145, 797.625, V
287522, 798.6722222222222, N
287796, 799.4333333333333, N
288069, 800.1916666666667, N
288351, 800.975, N
288629, 801.7472222222223, N
288905, 802.5138888888889, N
289190, 803.3055555555555, N
289470, 804.0833333333334, N
289748, 804.8555555555556, N
290032, 805.6444444444444, N
290317, 806.4361111111111, N
290599, 807.2194444444444, N
290878, 807.9944444444444, N
291167, 808.7972222222222, N
291449, 809.5805555555555, N
291724, 810.3444444444444, N
292009, 811.1361111111111, N
292287, 811.9083333333333, N
292567, 812.6861111111111, N
292850, 813.4722222222222, N
293131, 814.2527777777777, N
293420, 815.0555555555555, N
293703, 815.8416666666667, N
293982, 816.6166666666667, N
294268, 817.4111111111112, N
294552, 818.2, N
294840, 819.0, N
295120, 819.7777777777778, N
295400, 820.5555555555555, N
295687, 821.3527777777778, N
295970, 822.1388888888889, N
296244, 822.9, N
296520, 823.6666666666666, N
296797, 824.4361111111111, N
297082, 825.2277777777778, N
297357, 825.9916666666667, N
297636, 826.7666666666667, N
297918, 827.55, N
298199, 828.3305555555555, N
298480, 829.1111111111111, N
298760, 829.8888888888889, N
298940, 830.3888888888889, A
299280, 831.3333333333334, N
299568, 832.1333333333333, N
299754, 832.65, V
300132, 833.7, N
300409, 834.4694444444444, N
300689, 835.2472222222223, N
300963, 836.0083333333333, N
301242, 836.7833333333333, N
301525, 837.5694444444445, N
301802, 838.3388888888888, N
302092, 839.1444444444444, N
302281, 839.6694444444445, V
302646, 840.6833333333333, N
302933, 841.4805555555556, N
303212, 842.2555555555556, N
303497, 843.0472222222222, N
303775, 843.8194444444445, N
304054, 844.5944444444444, N
304338, 845.3833333333333, N
304621, 846.1694444444445, N
304899, 846.9416666666667, N
305175, 847.7083333333334, N
305457, 848.4916666666667, N
305742, 849.2833333333333, N
306021, 850.0583333333333, N
306308, 850.8555555555556, N
306596, 851.6555555555556, N
306874, 852.4277777777778, N
307162, 853.2277777777778, N
307449, 854.025, N
307733, 854.8138888888889, N
308017, 855.6027777777778, N
308300, 856.3888888888889, N
308585, 857.1805555555555, N
308868, 857.9666666666667, N
309143, 858.7305555555556, N
309418, 859.4944444444444, N
309695, 860.2638888888889, N
309979, 861.0527777777778, N
310253, 861.8138888888889, N
310525, 862.5694444444445, N
310810, 863.3611111111111, N
311084, 864.1222222222223, N
311355, 864.875, N
311633, 865.6472222222222, N
311905, 866.4027777777778, N
312184, 867.1777777777778, N
312455, 867.9305555555555, N
312728, 868.6888888888889, N
313003, 869.4527777777778, N
313276, 870.2111111111111, N
313546, 870.9611111111111, N
313812, 871.7, N
314082, 872.45, N
314359, 873.2194444444444, N
314628, 873.9666666666667, N
314894, 874.7055555555555, N
315174, 875.4833333333333, N
315448, 876.2444444444444, N
315716, 876.9888888888889, N
315994, 877.7611111111111, N
316272, 878.5333333333333, N
316554, 879.3166666666667, N
316830, 880.0833333333334, N
317107, 880.8527777777778, N
317389, 881.6361111111111, N
317668, 882.4111111111112, N
317945, 883.1805555555555, N
318219, 883.9416666666667, N
318497, 884.7138888888888, N
318784, 885.5111111111111, N
319059, 886.275, N
319339, 887.0527777777778, N
319624, 887.8444444444444, N
319904, 888.6222222222223, N
320183, 889.3972222222222, N
320463, 890.175, N
320743, 890.9527777777778, N
321027, 891.7416666666667, N
321306, 892.5166666666667, N
321587, 893.2972222222222, N
321871, 894.0861111111111, N
322147, 894.8527777777778, N
322425, 895.625, N
322698, 896.3833333333333, N
322977, 897.1583333333333, N
323255, 897.9305555555555, N
323526, 898.6833333333333, N
323804, 899.4555555555555, N
324078, 900.2166666666667, N
324352, 900.9777777777778, N
324630, 901.75, N
324903, 902.5083333333333, N
325181, 903.2805555555556, N
325458, 904.05, N
325731, 904.8083333333333, N
326010, 905.5833333333334, N
326288, 906.3555555555556, N
326558, 907.1055555555556, N
326829, 907.8583333333333, N
327104, 908.6222222222223, N
327381, 909.3916666666667, N
327658, 910.1611111111112, N
327932, 910.9222222222222, N
328216, 911.7111111111111, N
328493, 912.4805555555556, N
328766, 913.2388888888889, N
329051, 914.0305555555556, N
329326, 914.7944444444445, N
329606, 915.5722222222222, N
329886, 916.35, N
330158, 917.1055555555556, N
330448, 917.9111111111112, N
330728, 918.6888888888889, N
331004, 919.4555555555555, N
331283, 920.2305555555556, N
331563, 921.0083333333333, N
331846, 921.7944444444445, N
332121, 922.5583333333333, N
332402, 923.3388888888888, N
332685, 924.125, N
332966, 924.9055555555556, N
333249, 925.6916666666667, N
333522, 926.45, N
333802, 927.2277777777778, N
334080, 928.0, N
334352, 928.7555555555556, N
334629, 929.525, N
334906, 930.2944444444445, N
335176, 931.0444444444445, N
335449, 931.8027777777778, N
335725, 932.5694444444445, N
336000, 933.3333333333334, N
336278, 934.1055555555556, N
336554, 934.8722222222223, N
336841, 935.6694444444445, N
337123, 936.4527777777778, N
337398, 937.2166666666667, N
337689, 938.025, N
337968, 938.8, N
338254, 939.5944444444444, N
338535, 940.375, N
338810, 941.1388888888889, N
339096, 941.9333333333333, N
339377, 942.7138888888888, N
339648, 943.4666666666667, N
339923, 944.2305555555556, N
340202, 945.0055555555556, N
340482, 945.7833333333333, N
340755, 946.5416666666666, N
341035, 947.3194444444445, N
341312, 948.0888888888888, N
341588, 948.8555555555556, N
341763, 949.3416666666667, V
342130, 950.3611111111111, N
342407, 951.1305555555556, N
342684, 951.9, N
342952, 952.6444444444444, N
343221, 953.3916666666667, N
343496, 954.1555555555556, N
343764, 954.9, N
343942, 955.3944444444444, V
344291, 956.3638888888889, N
344558, 957.1055555555556, N
344830, 957.8611111111111, N
345094, 958.5944444444444, N
345361, 959.3361111111111, N
345630, 960.0833333333334, N
345902, 960.8388888888888, N
346172, 961.5888888888888, N
346441, 962.3361111111111, N
346712, 963.0888888888888, N
346992, 963.8666666666667, N
347264, 964.6222222222223, N
347534, 965.3722222222223, N
347817, 966.1583333333333, N
348086, 966.9055555555556, N
348352, 967.6444444444444, N
348626, 968.4055555555556, N
348901, 969.1694444444445, N
349180, 969.9444444444445, N
349454, 970.7055555555555, N
349729, 971.4694444444444, N
350010, 972.25, N
350288, 973.0222222222222, N
350562, 973.7833333333333, N
350836, 974.5444444444445, N
351109, 975.3027777777778, N
351386, 976.0722222222222, N
351656, 976.8222222222222, N
351924, 977.5666666666667, N
352204, 978.3444444444444, N
352470, 979.0833333333334, N
352646, 979.5722222222222, V
353001, 980.5583333333333, N
353268, 981.3, N
353539, 982.0527777777778, N
353805, 982.7916666666666, N
354071, 983.5305555555556, N
354347, 984.2972222222222, N
354618, 985.05, N
354885, 985.7916666666666, N
355154, 986.5388888888889, N
355424, 987.2888888888889, N
355696, 988.0444444444445, N
355965, 988.7916666666666, N
356229, 989.525, N
356507, 990.2972222222222, N
356774, 991.0388888888889, N
357035, 991.7638888888889, N
357309, 992.525, N
357488, 993.0222222222222, V
357846, 994.0166666666667, N
358121, 994.7805555555556, N
358390, 995.5277777777778, N
358666, 996.2944444444445, N
358937, 997.0472222222222, N
359205, 997.7916666666666, N
359476, 998.5444444444445, N
359743, 999.2861111111112, N
360015, 1000.0416666666666, N
360124, 1000.3444444444444, ~
360251, 1000.6972222222222, N
360550, 1001.5277777777778, N
360826, 1002.2944444444445, N
361094, 1003.0388888888889, N
361268, 1003.5222222222222, ~
361356, 1003.7666666666667, N
361630, 1004.5277777777778, N
361897, 1005.2694444444444, N
362171, 1006.0305555555556, N
362443, 1006.7861111111112, N
362712, 1007.5333333333333, N
362990, 1008.3055555555555, N
363265, 1009.0694444444445, N
363530, 1009.8055555555555, N
363803, 1010.5638888888889, N
364075, 1011.3194444444445, N
364350, 1012.0833333333334, N
364619, 1012.8305555555555, N
364886, 1013.5722222222222, N
365163, 1014.3416666666667, N
365429, 1015.0805555555555, N
365690, 1015.8055555555555, N
365964, 1016.5666666666667, N
366225, 1017.2916666666666, N
366498, 1018.05, N
366770, 1018.8055555555555, N
367038, 1019.55, N
367318, 1020.3277777777778, N
367589, 1021.0805555555555, N
367857, 1021.825, N
368131, 1022.5861111111111, N
368402, 1023.3388888888888, N
368676, 1024.1, N
368942, 1024.838888888889, N
369211, 1025.5861111111112, N
369489, 1026.3583333333333, N
369760, 1027.111111111111, N
370019, 1027.8305555555555, N
370293, 1028.5916666666667, N
370562, 1029.338888888889, N
370839, 1030.1083333333333, N
371107, 1030.8527777777779, N
371373, 1031.5916666666667, N
371652, 1032.3666666666666, N
371926, 1033.1277777777777, N
372191, 1033.8638888888888, N
372467, 1034.6305555555555, N
372737, 1035.3805555555555, N
373011, 1036.1416666666667, N
373282, 1036.8944444444444, N
373549, 1037.6361111111112, N
373830, 1038.4166666666667, N
374098, 1039.161111111111, N
374269, 1039.6361111111112, V
374636, 1040.6555555555556, N
374905, 1041.4027777777778, N
375176, 1042.1555555555556, N
375444, 1042.9, N
375710, 1043.638888888889, N
375987, 1044.4083333333333, N
376259, 1045.1638888888888, N
376523, 1045.8972222222221, N
376797, 1046.6583333333333, N
377071, 1047.4194444444445, N
377343, 1048.175, N
377526, 1048.6833333333334, V
377885, 1049.6805555555557, N
378164, 1050.4555555555555, N
378428, 1051.1888888888889, N
378690, 1051.9166666666667, N
378964, 1052.6777777777777, N
379228, 1053.411111111111, N
379498, 1054.161111111111, N
379771, 1054.9194444444445, N
380038, 1055.661111111111, N
380310, 1056.4166666666667, N
380583, 1057.175, N
380853, 1057.925, N
381122, 1058.6722222222222, N
381304, 1059.1777777777777, V
381661, 1060.1694444444445, N
381935, 1060.9305555555557, N
382201, 1061.6694444444445, N
382470, 1062.4166666666667, N
382737, 1063.1583333333333, N
383003, 1063.8972222222221, N
383274, 1064.65, N
383533, 1065.3694444444445, N
383802, 1066.1166666666666, N
384078, 1066.8833333333334, N
384344, 1067.6222222222223, N
384614, 1068.3722222222223, N
384895, 1069.1527777777778, N
385074, 1069.65, V
385439, 1070.6638888888888, N
385714, 1071.4277777777777, N
385984, 1072.1777777777777, N
386261, 1072.9472222222223, N
386528, 1073.6888888888889, N
386797, 1074.4361111111111, N
387070, 1075.1944444444443, N
387336, 1075.9333333333334, N
387601, 1076.6694444444445, N
387864, 1077.4, N
388134, 1078.15, N
388410, 1078.9166666666667, N
388677, 1079.6583333333333, N
388853, 1080.1472222222221, V
389222, 1081.1722222222222, N
389497, 1081.9361111111111, N
389762, 1082.6722222222222, N
390032, 1083.4222222222222, N
390298, 1084.161111111111, N
390567, 1084.9083333333333, N
390835, 1085.6527777777778, N
391100, 1086.388888888889, N
391374, 1087.15, N
391643, 1087.8972222222221, N
391910, 1088.638888888889, N
392180, 1089.388888888889, N
392449, 1090.1361111111112, N
392633, 1090.6472222222221, V
392994, 1091.65, N
393264, 1092.4, N
393540, 1093.1666666666667, N
393813, 1093.925, N
394079, 1094.6638888888888, N
394346, 1095.4055555555556, N
394617, 1096.1583333333333, N
394894, 1096.9277777777777, N
395163, 1097.675, N
395434, 1098.4277777777777, N
395712, 1099.2, N
395985, 1099.9583333333333, N
396254, 1100.7055555555555, N
396525, 1101.4583333333333, N
396796, 1102.2111111111112, N
397075, 1102.986111111111, N
397339, 1103.7194444444444, N
397609, 1104.4694444444444, N
397887, 1105.2416666666666, N
398161, 1106.0027777777777, N
398431, 1106.7527777777777, N
398611, 1107.2527777777777, V
398966, 1108.2388888888888, N
399244, 1109.0111111111112, N
399513, 1109.7583333333334, N
399780, 1110.5, N
400048, 1111.2444444444445, N
400313, 1111.9805555555556, N
400580, 1112.7222222222222, N
400842, 1113.45, N
401107, 1114.1861111111111, N
401378, 1114.9388888888889, N
401639, 1115.6638888888888, N
401905, 1116.4027777777778, N
402176, 1117.1555555555556, N
402445, 1117.9027777777778, N
402708, 1118.6333333333334, N
402975, 1119.375, N
403241, 1120.1138888888888, N
403517, 1120.8805555555555, N
403788, 1121.6333333333334, N
404059, 1122.3861111111112, N
404336, 1123.1555555555556, N
404610, 1123.9166666666667, N
404884, 1124.6777777777777, N
405056, 1125.1555555555556, V
405429, 1126.1916666666666, N
405709, 1126.9694444444444, N
405977, 1127.713888888889, N
406250, 1128.4722222222222, N
406529, 1129.2472222222223, N
406806, 1130.0166666666667, N
407077, 1130.7694444444444, N
407254, 1131.2611111111112, V
407614, 1132.2611111111112, N
407895, 1133.0416666666667, N
408166, 1133.7944444444445, N
408431, 1134.5305555555556, N
408706, 1135.2944444444445, N
408977, 1136.0472222222222, N
409238, 1136.7722222222221, N
409504, 1137.5111111111112, N
409775, 1138.263888888889, N
409955, 1138.763888888889, V
410313, 1139.7583333333334, N
410581, 1140.5027777777777, N
410858, 1141.2722222222221, N
411128, 1142.0222222222221, N
411395, 1142.763888888889, N
411669, 1143.525, N
411937, 1144.2694444444444, N
412117, 1144.7694444444444, V
412482, 1145.7833333333333, N
412749, 1146.525, N
413025, 1147.2916666666667, N
413295, 1148.0416666666667, N
413559, 1148.775, N
413827, 1149.5194444444444, N
414093, 1150.2583333333334, N
414363, 1151.0083333333334, N
414633, 1151.7583333333334, N
414902, 1152.5055555555555, N
415178, 1153.2722222222221, N
415449, 1154.025, N
415716, 1154.7666666666667, N
415992, 1155.5333333333333, N
416262, 1156.2833333333333, N
416538, 1157.05, N
416815, 1157.8194444444443, N
417084, 1158.5666666666666, N
417364, 1159.3444444444444, N
417635, 1160.0972222222222, N
417901, 1160.8361111111112, N
418173, 1161.5916666666667, N
418442, 1162.338888888889, N
418715, 1163.0972222222222, N
418987, 1163.8527777777779, N
419257, 1164.6027777777779, N
419533, 1165.3694444444445, N
419711, 1165.8638888888888, V
420067, 1166.8527777777779, N
420341, 1167.6138888888888, N
420607, 1168.3527777777779, N
420881, 1169.1138888888888, N
421153, 1169.8694444444445, N
421415, 1170.5972222222222, N
421688, 1171.3555555555556, N
421956, 1172.1, N
422215, 1172.8194444444443, N
422484, 1173.5666666666666, N
422751, 1174.3083333333334, N
423020, 1175.0555555555557, N
423286, 1175.7944444444445, N
423551, 1176.5305555555556, N
423828, 1177.3, N
424096, 1178.0444444444445, N
424361, 1178.7805555555556, N
424635, 1179.5416666666667, N
424901, 1180.2805555555556, N
425081, 1180.7805555555556, V
425443, 1181.786111111111, N
425708, 1182.5222222222221, N
425978, 1183.2722222222221, N
426243, 1184.0083333333334, N
426503, 1184.7305555555556, N
426770, 1185.4722222222222, N
427038, 1186.2166666666667, N
427308, 1186.9666666666667, N
427580, 1187.7222222222222, N
427850, 1188.4722222222222, N
428130, 1189.25, N
428403, 1190.0083333333334, N
428673, 1190.7583333333334, N
428952, 1191.5333333333333, N
429222, 1192.2833333333333, N
429506, 1193.0722222222223, N
429783, 1193.8416666666667, N
429955, 1194.3194444444443, V
430331, 1195.3638888888888, N
430606, 1196.1277777777777, N
430873, 1196.8694444444445, N
431147, 1197.6305555555555, N
431415, 1198.375, N
431691, 1199.1416666666667, N
431958, 1199.8833333333334, N
432226, 1200.6277777777777, N
432502, 1201.3944444444444, N
432775, 1202.1527777777778, N
433042, 1202.8944444444444, N
433314, 1203.65, N
433585, 1204.4027777777778, N
433763, 1204.8972222222221, V
434130, 1205.9166666666667, N
434397, 1206.6583333333333, N
434676, 1207.4333333333334, N
434946, 1208.1833333333334, N
435205, 1208.9027777777778, N
435474, 1209.65, N
435740, 1210.388888888889, N
436011, 1211.1416666666667, N
436277, 1211.8805555555555, N
436546, 1212.6277777777777, N
436822, 1213.3944444444444, N
437002, 1213.8944444444444, V
437357, 1214.8805555555555, N
437627, 1215.6305555555555, N
437892, 1216.3666666666666, N
438166, 1217.1277777777777, N
438435, 1217.875, N
438697, 1218.6027777777779, N
438974, 1219.3722222222223, N
439240, 1220.111111111111, N
439504, 1220.8444444444444, N
439775, 1221.5972222222222, N
440043, 1222.3416666666667, N
440311, 1223.0861111111112, N
440583, 1223.8416666666667, N
440849, 1224.5805555555555, N
441119, 1225.3305555555555, N
441388, 1226.0777777777778, N
441656, 1226.8222222222223, N
441924, 1227.5666666666666, N
442184, 1228.2888888888888, N
442452, 1229.0333333333333, N
442725, 1229.7916666666667, N
442986, 1230.5166666666667, N
443251, 1231.2527777777777, N
443520, 1232.0, N
443785, 1232.736111111111, N
444048, 1233.4666666666667, N
444314, 1234.2055555555555, N
444576, 1234.9333333333334, N
444846, 1235.6833333333334, N
445110, 1236.4166666666667, N
445376, 1237.1555555555556, N
445650, 1237.9166666666667, N
445921, 1238.6694444444445, N
446184, 1239.4, N
446447, 1240.1305555555555, N
446713, 1240.8694444444445, N
446981, 1241.6138888888888, N
447244, 1242.3444444444444, N
447505, 1243.0694444444443, N
447778, 1243.8277777777778, N
448040, 1244.5555555555557, N
448297, 1245.2694444444444, N
448566, 1246.0166666666667, N
448827, 1246.7416666666666, N
449094, 1247.4833333333333, N
449361, 1248.225, N
449627, 1248.963888888889, N
449898, 1249.7166666666667, N
450165, 1250.4583333333333, N
450426, 1251.1833333333334, N
450692, 1251.9222222222222, N
450955, 1252.6527777777778, N
451218, 1253.3833333333334, N
451484, 1254.1222222222223, N
451743, 1254.8416666666667, N
452010, 1255.5833333333333, N
452270, 1256.3055555555557, N
452531, 1257.0305555555556, N
452795, 1257.763888888889, N
453053, 1258.4805555555556, N
453315, 1259.2083333333333, N
453584, 1259.9555555555555, N
453848, 1260.6888888888889, N
454021, 1261.1694444444445, V
454379, 1262.1638888888888, N
454648, 1262.911111111111, N
454910, 1263.638888888889, N
455170, 1264.361111111111, N
455434, 1265.0944444444444, N
455700, 1265.8333333333333, N
455959, 1266.5527777777777, N
456220, 1267.2777777777778, N
456484, 1268.0111111111112, N
456746, 1268.7388888888888, N
457005, 1269.4583333333333, N
457269, 1270.1916666666666, N
457528, 1270.911111111111, N
457706, 1271.4055555555556, V
458058, 1272.3833333333334, N
458322, 1273.1166666666666, N
458592, 1273.8666666666666, N
458858, 1274.6055555555556, N
459118, 1275.3277777777778, N
459380, 1276.0555555555557, N
459642, 1276.7833333333333, N
459910, 1277.5277777777778, N
460172, 1278.2555555555555, N
460432, 1278.9777777777779, N
460706, 1279.7388888888888, N
460882, 1280.2277777777779, V
461227, 1281.1861111111111, N
461498, 1281.9388888888889, N
461761, 1282.6694444444445, N
462028, 1283.411111111111, N
462292, 1284.1444444444444, N
462557, 1284.8805555555555, N
462829, 1285.6361111111112, N
463006, 1286.1277777777777, V
463352, 1287.088888888889, N
463620, 1287.8333333333333, N
463882, 1288.5611111111111, N
464145, 1289.2916666666667, N
464409, 1290.025, N
464668, 1290.7444444444445, N
464935, 1291.486111111111, N
465195, 1292.2083333333333, N
465457, 1292.9361111111111, N
465630, 1293.4166666666667, V
465982, 1294.3944444444444, N
466247, 1295.1305555555555, N
466513, 1295.8694444444445, N
466777, 1296.6027777777779, N
467039, 1297.3305555555555, N
467309, 1298.0805555555555, N
467577, 1298.825, N
467838, 1299.55, N
468099, 1300.275, N
468363, 1301.0083333333334, N
468631, 1301.7527777777777, N
468891, 1302.475, N
469149, 1303.1916666666666, N
469417, 1303.9361111111111, N
469679, 1304.6638888888888, N
469937, 1305.3805555555555, N
470206, 1306.1277777777777, N
470468, 1306.8555555555556, N
470736, 1307.6, N
471006, 1308.35, N
471269, 1309.0805555555555, N
471541, 1309.8361111111112, N
471809, 1310.5805555555555, N
472071, 1311.3083333333334, N
472334, 1312.0388888888888, N
472508, 1312.5222222222221, V
472860, 1313.5, N
473133, 1314.2583333333334, N
473392, 1314.9777777777779, N
473659, 1315.7194444444444, N
473924, 1316.4555555555555, N
474190, 1317.1944444444443, N
474460, 1317.9444444444443, N
474722, 1318.6722222222222, N
474990, 1319.4166666666667, N
475260, 1320.1666666666667, N
475526, 1320.9055555555556, N
475791, 1321.6416666666667, N
476067, 1322.4083333333333, N
476336, 1323.1555555555556, N
476597, 1323.8805555555555, N
476865, 1324.625, N
477134, 1325.3722222222223, N
477406, 1326.1277777777777, N
477673, 1326.8694444444445, N
477940, 1327.611111111111, N
478211, 1328.3638888888888, N
478386, 1328.85, V
478744, 1329.8444444444444, N
479010, 1330.5833333333333, N
479277, 1331.325, N
479547, 1332.075, N
479812, 1332.8111111111111, N
480077, 1333.5472222222222, N
480355, 1334.3194444444443, N
480623, 1335.0638888888889, N
480884, 1335.7888888888888, N
481154, 1336.5388888888888, N
481424, 1337.2888888888888, N
481697, 1338.0472222222222, N
481963, 1338.786111111111, N
482144, 1339.2888888888888, V
482498, 1340.2722222222221, N
482769, 1341.025, N
483030, 1341.75, N
483299, 1342.4972222222223, N
483565, 1343.236111111111, N
483839, 1343.9972222222223, N
484108, 1344.7444444444445, N
484371, 1345.475, N
484650, 1346.25, N
484918, 1346.9944444444445, N
485179, 1347.7194444444444, N
485450, 1348.4722222222222, N
485722, 1349.2277777777779, N
485904, 1349.7333333333333, V
486260, 1350.7222222222222, N
486526, 1351.4611111111112, N
486797, 1352.213888888889, N
487065, 1352.9583333333333, N
487328, 1353.6888888888889, N
487532, 1354.2555555555555, ~
487592, 1354.4222222222222, N
487855, 1355.1527777777778, N
488126, 1355.9055555555556, N
488388, 1356.6333333333334, N
488586, 1357.1833333333334, V
488923, 1358.1194444444445, N
489191, 1358.8638888888888, N
489452, 1359.588888888889, N
489720, 1360.3333333333333, N
489988, 1361.0777777777778, N
490260, 1361.8333333333333, N
490524, 1362.5666666666666, N
490787, 1363.2972222222222, N
491057, 1364.0472222222222, N
491321, 1364.7805555555556, N
491457, 1365.1583333333333, ~
491580, 1365.5, N
491850, 1366.25, N
492109, 1366.9694444444444, N
492377, 1367.713888888889, N
492644, 1368.4555555555555, N
492908, 1369.1888888888889, N
493185, 1369.9583333333333, N
493452, 1370.7, N
493714, 1371.4277777777777, N
493985, 1372.1805555555557, N
494251, 1372.9194444444445, N
494430, 1373.4166666666667, V
494786, 1374.4055555555556, N
495054, 1375.15, N
495325, 1375.9027777777778, N
495586, 1376.6277777777777, N
495846, 1377.35, N
496118, 1378.1055555555556, N
496377, 1378.825, N
496646, 1379.5722222222223, N
496918, 1380.3277777777778, N
497181, 1381.0583333333334, N
497451, 1381.8083333333334, N
497630, 1382.3055555555557, V
497985, 1383.2916666666667, N
498252, 1384.0333333333333, N
498519, 1384.775, N
498779, 1385.4972222222223, N
499052, 1386.2555555555555, N
499311, 1386.975, N
499573, 1387.7027777777778, N
499838, 1388.4388888888889, N
500101, 1389.1694444444445, N
500365, 1389.9027777777778, N
500548, 1390.411111111111, ~
500625, 1390.625, N
500886, 1391.35, N
501156, 1392.1, N
501421, 1392.8361111111112, N
501686, 1393.5722222222223, N
501967, 1394.3527777777779, N
502231, 1395.0861111111112, N
502494, 1395.8166666666666, N
502770, 1396.5833333333333, N
503034, 1397.3166666666666, N
503304, 1398.0666666666666, N
503573, 1398.8138888888889, N
503762, 1399.338888888889, ~
503841, 1399.5583333333334, N
504112, 1400.3111111111111, N
504382, 1401.0611111111111, N
504649, 1401.8027777777777, N
504918, 1402.55, N
505187, 1403.2972222222222, N
505376, 1403.8222222222223, ~
505459, 1404.0527777777777, N
505723, 1404.786111111111, N
505996, 1405.5444444444445, N
506110, 1405.861111111111, ~
506274, 1406.3166666666666, N
506540, 1407.0555555555557, N
506802, 1407.7833333333333, N
507073, 1408.536111111111, N
507338, 1409.2722222222221, N
507603, 1410.0083333333334, N
507870, 1410.75, N
508133, 1411.4805555555556, N
508396, 1412.2111111111112, N
508660, 1412.9444444444443, N
508921, 1413.6694444444445, N
509183, 1414.3972222222221, N
509441, 1415.1138888888888, N
509704, 1415.8444444444444, N
509974, 1416.5944444444444, N
510239, 1417.3305555555555, N
510513, 1418.0916666666667, N
510788, 1418.8555555555556, N
511063, 1419.6194444444445, N
511337, 1420.3805555555555, N
511512, 1420.8666666666666, V
511878, 1421.8833333333334, N
512156, 1422.6555555555556, N
512419, 1423.3861111111112, N
512682, 1424.1166666666666, N
512954, 1424.8722222222223, N
513221, 1425.6138888888888, N
513488, 1426.3555555555556, N
513750, 1427.0833333333333, N
514020, 1427.8333333333333, N
514292, 1428.588888888889, N
514556, 1429.3222222222223, N
514826, 1430.0722222222223, N
515097, 1430.825, N
515365, 1431.5694444444443, N
515633, 1432.3138888888889, N
515899, 1433.0527777777777, N
516167, 1433.7972222222222, N
516441, 1434.5583333333334, N
516706, 1435.2944444444445, N
516876, 1435.7666666666667, V
517241, 1436.7805555555556, N
517513, 1437.536111111111, N
517781, 1438.2805555555556, N
518045, 1439.013888888889, N
518314, 1439.7611111111112, N
518587, 1440.5194444444444, N
518854, 1441.2611111111112, N
519129, 1442.025, N
519401, 1442.7805555555556, N
519666, 1443.5166666666667, N
519935, 1444.263888888889, N
520198, 1444.9944444444445, N
520460, 1445.7222222222222, N
520725, 1446.4583333333333, N
520980, 1447.1666666666667, N
521235, 1447.875, N
521498, 1448.6055555555556, N
521762, 1449.338888888889, N
522020, 1450.0555555555557, N
522194, 1450.5388888888888, V
522538, 1451.4944444444445, N
522807, 1452.2416666666666, N
523067, 1452.963888888889, N
523326, 1453.6833333333334, N
523596, 1454.4333333333334, N
523854, 1455.15, N
524104, 1455.8444444444444, N
524362, 1456.5611111111111, N
524616, 1457.2666666666667, N
524874, 1457.9833333333333, N
525130, 1458.6944444444443, N
525386, 1459.4055555555556, N
525646, 1460.1277777777777, N
525903, 1460.8416666666667, N
526161, 1461.5583333333334, N
526424, 1462.2888888888888, N
526678, 1462.9944444444445, N
526943, 1463.7305555555556, N
527209, 1464.4694444444444, N
527469, 1465.1916666666666, N
527737, 1465.9361111111111, N
527927, 1466.463888888889, V
528263, 1467.3972222222221, N
528524, 1468.1222222222223, N
528781, 1468.8361111111112, N
529039, 1469.5527777777777, N
529301, 1470.2805555555556, N
529557, 1470.9916666666666, N
529813, 1471.7027777777778, N
530077, 1472.4361111111111, N
530337, 1473.1583333333333, N
530593, 1473.8694444444445, N
530854, 1474.5944444444444, N
531114, 1475.3166666666666, N
531380, 1476.0555555555557, N
531641, 1476.7805555555556, N
531905, 1477.513888888889, N
532173, 1478.2583333333334, N
532436, 1478.9888888888888, N
532701, 1479.725, N
532965, 1480.4583333333333, N
533223, 1481.175, N
533483, 1481.8972222222221, N
533753, 1482.6472222222221, N
534011, 1483.3638888888888, N
534267, 1484.075, N
534534, 1484.8166666666666, N
534797, 1485.5472222222222, N
535055, 1486.263888888889, N
535313, 1486.9805555555556, N
535575, 1487.7083333333333, N
535839, 1488.4416666666666, N
536097, 1489.1583333333333, N
536357, 1489.8805555555555, N
536626, 1490.6277777777777, N
536885, 1491.3472222222222, N
537142, 1492.0611111111111, N
537407, 1492.7972222222222, N
537667, 1493.5194444444444, N
537931, 1494.2527777777777, N
538189, 1494.9694444444444, N
538446, 1495.6833333333334, N
538706, 1496.4055555555556, N
538964, 1497.1222222222223, N
539222, 1497.838888888889, N
539481, 1498.5583333333334, N
539739, 1499.275, N
540004, 1500.0111111111112, N
540273, 1500.7583333333334, N
540539, 1501.4972222222223, N
540812, 1502.2555555555555, N
541086, 1503.0166666666667, N
541361, 1503.7805555555556, N
541629, 1504.525, N
541895, 1505.263888888889, N
542088, 1505.8, V
542435, 1506.763888888889, N
542692, 1507.4777777777779, N
542948, 1508.1888888888889, N
543216, 1508.9333333333334, N
543481, 1509.6694444444445, N
543740, 1510.388888888889, N
544000, 1511.111111111111, N
544264, 1511.8444444444444, N
544531, 1512.5861111111112, N
544794, 1513.3166666666666, N
545057, 1514.0472222222222, N
545324, 1514.7888888888888, N
545590, 1515.5277777777778, N
545849, 1516.2472222222223, N
546115, 1516.986111111111, N
546379, 1517.7194444444444, N
546649, 1518.4694444444444, N
546911, 1519.1972222222223, N
547170, 1519.9166666666667, N
547444, 1520.6777777777777, N
547709, 1521.4138888888888, N
547965, 1522.125, N
548226, 1522.85, N
548490, 1523.5833333333333, N
548755, 1524.3194444444443, N
549022, 1525.0611111111111, N
549285, 1525.7916666666667, N
549558, 1526.55, N
549824, 1527.2888888888888, N
550082, 1528.0055555555555, N
550349, 1528.7472222222223, N
550535, 1529.263888888889, V
550879, 1530.2194444444444, N
551146, 1530.9611111111112, N
551405, 1531.6805555555557, N
551676, 1532.4333333333334, N
551946, 1533.1833333333334, N
552205, 1533.9027777777778, N
552475, 1534.6527777777778, N
552648, 1535.1333333333334, V
553025, 1536.1805555555557, N
553298, 1536.9388888888889, N
553569, 1537.6916666666666, N
553849, 1538.4694444444444, N
554118, 1539.2166666666667, N
554384, 1539.9555555555555, N
554658, 1540.7166666666667, N
554925, 1541.4583333333333, N
555197, 1542.213888888889, N
555459, 1542.9416666666666, N
555721, 1543.6694444444445, N
555989, 1544.4138888888888, N
556252, 1545.1444444444444, N
556506, 1545.85, N
556770, 1546.5833333333333, N
557031, 1547.3083333333334, N
557295, 1548.0416666666667, N
557557, 1548.7694444444444, N
557819, 1549.4972222222223, N
558082, 1550.2277777777779, N
558340, 1550.9444444444443, N
558527, 1551.463888888889, V
558671, 1551.8638888888888, V
559042, 1552.8944444444444, N
559304, 1553.6222222222223, N
559572, 1554.3666666666666, N
559828, 1555.0777777777778, N
560084, 1555.7888888888888, N
560350, 1556.5277777777778, N
560609, 1557.2472222222223, N
560864, 1557.9555555555555, N
561128, 1558.6888888888889, N
561391, 1559.4194444444445, N
561655, 1560.1527777777778, N
561925, 1560.9027777777778, N
562192, 1561.6444444444444, N
562464, 1562.4, N
562727, 1563.1305555555555, N
562994, 1563.8722222222223, N
563259, 1564.6083333333333, N
563518, 1565.3277777777778, N
563782, 1566.0611111111111, N
563967, 1566.575, V
564309, 1567.525, N
564571, 1568.2527777777777, N
564840, 1569.0, N
565103, 1569.7305555555556, N
565364, 1570.4555555555555, N
565627, 1571.1861111111111, N
565888, 1571.911111111111, N
566149, 1572.6361111111112, N
566412, 1573.3666666666666, N
566607, 1573.9083333333333, V
566934, 1574.8166666666666, N
567197, 1575.5472222222222, N
567448, 1576.2444444444445, N
567710, 1576.9722222222222, N
567969, 1577.6916666666666, N
568234, 1578.4277777777777, N
568495, 1579.1527777777778, N
568756, 1579.8777777777777, N
569024, 1580.6222222222223, N
569294, 1581.3722222222223, N
569557, 1582.1027777777779, N
569826, 1582.85, N
570096, 1583.6, N
570361, 1584.3361111111112, N
570635, 1585.0972222222222, N
570903, 1585.8416666666667, N
571172, 1586.588888888889, N
571440, 1587.3333333333333, N
571702, 1588.0611111111111, N
571967, 1588.7972222222222, N
572227, 1589.5194444444444, N
572494, 1590.2611111111112, N
572758, 1590.9944444444445, N
573017, 1591.713888888889, N
573281, 1592.4472222222223, N
573548, 1593.1888888888889, N
573808, 1593.911111111111, N
574070, 1594.638888888889, N
574333, 1595.3694444444445, N
574508, 1595.8555555555556, V
574863, 1596.8416666666667, N
575124, 1597.5666666666666, N
575384, 1598.2888888888888, N
575651, 1599.0305555555556, N
575913, 1599.7583333333334, N
576170, 1600.4722222222222, N
576427, 1601.1861111111111, N
576686, 1601.9055555555556, N
576952, 1602.6444444444444, N
577206, 1603.35, N
577463, 1604.0638888888889, N
577733, 1604.8138888888889, N
577993, 1605.536111111111, N
578249, 1606.2472222222223, N
578514, 1606.9833333333333, N
578778, 1607.7166666666667, N
579041, 1608.4472222222223, N
579307, 1609.1861111111111, N
579572, 1609.9222222222222, N
579847, 1610.6861111111111, N
580115, 1611.4305555555557, N
580375, 1612.1527777777778, N
580641, 1612.8916666666667, N
580903, 1613.6194444444445, N
581174, 1614.3722222222223, N
581430, 1615.0833333333333, N
581684, 1615.7888888888888, N
581952, 1616.5333333333333, N
582213, 1617.2583333333334, N
582466, 1617.9611111111112, N
582731, 1618.6972222222223, N
582993, 1619.425, N
583255, 1620.1527777777778, N
583521, 1620.8916666666667, N
583696, 1621.3777777777777, V
584049, 1622.3583333333333, N
584311, 1623.0861111111112, N
584563, 1623.786111111111, N
584820, 1624.5, N
585073, 1625.2027777777778, N
585331, 1625.9194444444445, N
585594, 1626.65, N
585845, 1627.3472222222222, N
586100, 1628.0555555555557, N
586365, 1628.7916666666667, N
586623, 1629.5083333333334, N
586875, 1630.2083333333333, N
587134, 1630.9277777777777, N
587395, 1631.6527777777778, N
587657, 1632.3805555555555, N
587919, 1633.1083333333333, N
588177, 1633.825, N
588443, 1634.5638888888889, N
588703, 1635.286111111111, N
588955, 1635.986111111111, N
589212, 1636.7, N
589470, 1637.4166666666667, N
589728, 1638.1333333333334, N
589989, 1638.8583333333333, N
590241, 1639.5583333333334, N
590495, 1640.263888888889, N
590754, 1640.9833333333333, N
591005, 1641.6805555555557, N
591257, 1642.3805555555555, N
591508, 1643.0777777777778, N
591757, 1643.7694444444444, N
592012, 1644.4777777777779, N
592268, 1645.1888888888889, N
592515, 1645.875, N
592773, 1646.5916666666667, N
593025, 1647.2916666666667, N
593276, 1647.9888888888888, N
593528, 1648.6888888888889, N
593779, 1649.3861111111112, N
594035, 1650.0972222222222, N
594294, 1650.8166666666666, N
594543, 1651.5083333333334, N
594796, 1652.2111111111112, N
595059, 1652.9416666666666, N
595313, 1653.6472222222221, N
595567, 1654.3527777777779, N
595824, 1655.0666666666666, N
596080, 1655.7777777777778, N
596339, 1656.4972222222223, N
596600, 1657.2222222222222, N
596858, 1657.9388888888889, N
597120, 1658.6666666666667, N
597381, 1659.3916666666667, N
597639, 1660.1083333333333, N
597899, 1660.8305555555555, N
598156, 1661.5444444444445, N
598418, 1662.2722222222221, N
598681, 1663.0027777777777, N
598935, 1663.7083333333333, N
599188, 1664.411111111111, N
599454, 1665.15, N
599709, 1665.8583333333333, N
599962, 1666.5611111111111, N
600217, 1667.2694444444444, N
600471, 1667.975, N
600733, 1668.7027777777778, N
600990, 1669.4166666666667, N
601245, 1670.125, N
601510, 1670.861111111111, N
601764, 1671.5666666666666, N
602015, 1672.263888888889, N
602272, 1672.9777777777779, N
602523, 1673.675, N
602779, 1674.3861111111112, N
603034, 1675.0944444444444, N
603285, 1675.7916666666667, N
603540, 1676.5, N
603800, 1677.2222222222222, N
604054, 1677.9277777777777, N
604307, 1678.6305555555555, N
604564, 1679.3444444444444, N
604820, 1680.0555555555557, N
605088, 1680.8, N
605350, 1681.5277777777778, N
605606, 1682.2388888888888, N
605871, 1682.975, N
606134, 1683.7055555555555, N
606388, 1684.411111111111, N
606649, 1685.1361111111112, N
606908, 1685.8555555555556, N
607169, 1686.5805555555555, N
607422, 1687.2833333333333, N
607675, 1687.986111111111, N
607942, 1688.7277777777779, N
608196, 1689.4333333333334, N
608444, 1690.1222222222223, N
608704, 1690.8444444444444, N
608960, 1691.5555555555557, N
609214, 1692.2611111111112, N
609475, 1692.986111111111, N
609734, 1693.7055555555555, N
609996, 1694.4333333333334, N
610260, 1695.1666666666667, N
610519, 1695.8861111111112, N
610779, 1696.6083333333333, N
611036, 1697.3222222222223, N
611301, 1698.0583333333334, N
611567, 1698.7972222222222, N
611823, 1699.5083333333334, N
612082, 1700.2277777777779, N
612348, 1700.9666666666667, N
612607, 1701.6861111111111, N
612866, 1702.4055555555556, N
613124, 1703.1222222222223, N
613383, 1703.8416666666667, N
613646, 1704.5722222222223, N
613904, 1705.2888888888888, N
614161, 1706.0027777777777, N
614425, 1706.736111111111, N
614687, 1707.463888888889, N
614939, 1708.1638888888888, N
615197, 1708.8805555555555, N
615453, 1709.5916666666667, N
615713, 1710.3138888888889, N
615968, 1711.0222222222221, N
616224, 1711.7333333333333, N
616486, 1712.4611111111112, N
616744, 1713.1777777777777, N
616998, 1713.8833333333334, N
617259, 1714.6083333333333, N
617515, 1715.3194444444443, N
617765, 1716.013888888889, N
618027, 1716.7416666666666, N
618282, 1717.45, N
618536, 1718.1555555555556, N
618795, 1718.875, N
619055, 1719.5972222222222, N
619302, 1720.2833333333333, N
619557, 1720.9916666666666, N
619814, 1721.7055555555555, N
620080, 1722.4444444444443, N
620334, 1723.15, N
620590, 1723.861111111111, N
620850, 1724.5833333333333, N
621108, 1725.3, N
621360, 1726.0, N
621617, 1726.713888888889, N
621870, 1727.4166666666667, N
622127, 1728.1305555555555, N
622389, 1728.8583333333333, N
622646, 1729.5722222222223, N
622903, 1730.286111111111, N
623169, 1731.025, N
623436, 1731.7666666666667, N
623692, 1732.4777777777779, N
623956, 1733.2111111111112, N
624219, 1733.9416666666666, N
624486, 1734.6833333333334, N
624746, 1735.4055555555556, N
624920, 1735.888888888889, V
625271, 1736.8638888888888, N
625531, 1737.5861111111112, N
625785, 1738.2916666666667, N
626047, 1739.0194444444444, N
626303, 1739.7305555555556, N
626561, 1740.4472222222223, N
626826, 1741.1833333333334, N
627085, 1741.9027777777778, N
627349, 1742.6361111111112, N
627613, 1743.3694444444445, N
627873, 1744.0916666666667, N
628133, 1744.8138888888889, N
628392, 1745.5333333333333, N
628655, 1746.263888888889, N
628918, 1746.9944444444445, N
629173, 1747.7027777777778, N
629430, 1748.4166666666667, N
629693, 1749.1472222222221, N
629950, 1749.861111111111, N
630207, 1750.575, N
630466, 1751.2944444444445, N
630722, 1752.0055555555555, N
630986, 1752.7388888888888, N
631245, 1753.4583333333333, N
631504, 1754.1777777777777, N
631773, 1754.925, N
632033, 1755.6472222222221, N
632285, 1756.3472222222222, N
632547, 1757.075, N
632802, 1757.7833333333333, N
633058, 1758.4944444444445, N
633312, 1759.2, N
633569, 1759.9138888888888, N
633831, 1760.6416666666667, N
634091, 1761.3638888888888, N
634349, 1762.0805555555555, N
634609, 1762.8027777777777, N
634866, 1763.5166666666667, N
635127, 1764.2416666666666, N
635396, 1764.9888888888888, N
635653, 1765.7027777777778, N
635917, 1766.4361111111111, N
636188, 1767.1888888888889, N
636454, 1767.9277777777777, N
636714, 1768.65, N
636976, 1769.3777777777777, N
637239, 1770.1083333333333, N
637503, 1770.8416666666667, N
637760, 1771.5555555555557, N
638020, 1772.2777777777778, N
638280, 1773.0, N
638536, 1773.7111111111112, N
638792, 1774.4222222222222, N
639048, 1775.1333333333334, N
639303, 1775.8416666666667, N
639567, 1776.575, N
639830, 1777.3055555555557, N
640088, 1778.0222222222221, N
640355, 1778.763888888889, N
640621, 1779.5027777777777, N
640875, 1780.2083333333333, N
641137, 1780.9361111111111, N
641394, 1781.65, N
641658, 1782.3833333333334, N
641917, 1783.1027777777779, N
642177, 1783.825, N
642447, 1784.575, N
642706, 1785.2944444444445, N
642963, 1786.0083333333334, N
643228, 1786.7444444444445, N
643488, 1787.4666666666667, N
643748, 1788.1888888888889, N
644013, 1788.925, N
644272, 1789.6444444444444, N
644537, 1790.3805555555555, N
644801, 1791.1138888888888, N
645055, 1791.8194444444443, N
645311, 1792.5305555555556, N
645567, 1793.2416666666666, N
645826, 1793.9611111111112, N
646090, 1794.6944444444443, N
646338, 1795.3833333333334, N
646594, 1796.0944444444444, N
646856, 1796.8222222222223, N
647113, 1797.536111111111, N
647367, 1798.2416666666666, N
647623, 1798.9527777777778, N
647879, 1799.6638888888888, N
648143, 1800.3972222222221, N
648404, 1801.1222222222223, N
648662, 1801.838888888889, N
648932, 1802.588888888889, N
649191, 1803.3083333333334, N
649442, 1804.0055555555555, N
649701, 1804.725, N
649957, 1805.4361111111111, N
