13, 0.03611111111111111, +
68, 0.18888888888888888, R
369, 1.025, R
674, 1.8722222222222222, R
980, 2.7222222222222223, R
1284, 3.566666666666667, R
1587, 4.408333333333333, R
1879, 5.219444444444444, R
2175, 6.041666666666667, R
2475, 6.875, R
2766, 7.683333333333334, R
3054, 8.483333333333333, R
3364, 9.344444444444445, R
3674, 10.205555555555556, R
3978, 11.05, R
4282, 11.894444444444444, R
4580, 12.722222222222221, R
4883, 13.563888888888888, R
5171, 14.363888888888889, R
5464, 15.177777777777777, R
5762, 16.005555555555556, R
6057, 16.825, R
6351, 17.641666666666666, R
6644, 18.455555555555556, R
6929, 19.247222222222224, R
7215, 20.041666666666668, R
7506, 20.85, R
7793, 21.647222222222222, R
8082, 22.45, R
8378, 23.272222222222222, R
8664, 24.066666666666666, R
8966, 24.905555555555555, R
9266, 25.738888888888887, R
9565, 26.569444444444443, R
9875, 27.430555555555557, R
10178, 28.272222222222222, R
10480, 29.11111111111111, R
10789, 29.969444444444445, R
11046, 30.683333333333334, V
11383, 31.619444444444444, R
11687, 32.46388888888889, R
11991, 33.30833333333333, R
12294, 34.15, R
12595, 34.986111111111114, R
12898, 35.827777777777776, R
13199, 36.66388888888889, R
13497, 37.49166666666667, R
13790, 38.30555555555556, R
14071, 39.08611111111111, R
14359, 39.88611111111111, R
14638, 40.66111111111111, R
14916, 41.43333333333333, R
15209, 42.24722222222222, R
15497, 43.047222222222224, R
15789, 43.858333333333334, R
16090, 44.69444444444444, R
16393, 45.53611111111111, R
16701, 46.391666666666666, R
17006, 47.23888888888889, R
17313, 48.09166666666667, R
17622, 48.95, R
17933, 49.81388888888889, R
18243, 50.675, R
18548, 51.522222222222226, R
18854, 52.37222222222222, R
19157, 53.21388888888889, R
19459, 54.05277777777778, R
19761, 54.891666666666666, R
20055, 55.708333333333336, R
20360, 56.55555555555556, R
20655, 57.375, R
20957, 58.21388888888889, R
21267, 59.075, R
21566, 59.90555555555556, R
21868, 60.74444444444445, R
22176, 61.6, R
22474, 62.42777777777778, R
22777, 63.269444444444446, R
23076, 64.1, R
23373, 64.925, R
23667, 65.74166666666666, R
23968, 66.57777777777778, R
24272, 67.42222222222222, R
24566, 68.2388888888889, R
24863, 69.06388888888888, R
25169, 69.91388888888889, R
25473, 70.75833333333334, R
25775, 71.59722222222223, R
26078, 72.43888888888888, R
26375, 73.26388888888889, R
26674, 74.09444444444445, R
26976, 74.93333333333334, R
27278, 75.77222222222223, R
27575, 76.59722222222223, R
27873, 77.425, R
28177, 78.26944444444445, R
28469, 79.08055555555555, R
28767, 79.90833333333333, R
29060, 80.72222222222223, R
29350, 81.52777777777777, R
29648, 82.35555555555555, R
29947, 83.18611111111112, R
30240, 84.0, R
30537, 84.825, R
30830, 85.63888888888889, R
31121, 86.44722222222222, R
31412, 87.25555555555556, R
31704, 88.06666666666666, R
31986, 88.85, R
32272, 89.64444444444445, R
32560, 90.44444444444444, R
32850, 91.25, R
33141, 92.05833333333334, R
33429, 92.85833333333333, R
33656, 93.4888888888889, A
33983, 94.39722222222223, R
34290, 95.25, R
34578, 96.05, R
34864, 96.84444444444445, R
35151, 97.64166666666667, R
35385, 98.29166666666667, A
35700, 99.16666666666667, R
35993, 99.98055555555555, R
36277, 100.76944444444445, R
36563, 101.56388888888888, R
36843, 102.34166666666667, R
37131, 103.14166666666667, R
37419, 103.94166666666666, R
37706, 104.7388888888889, R
37931, 105.3638888888889, A
38260, 106.27777777777777, R
38488, 106.91111111111111, V
38850, 107.91666666666667, R
39146, 108.7388888888889, R
39428, 109.52222222222223, R
39713, 110.31388888888888, R
39994, 111.09444444444445, R
40284, 111.9, R
40520, 112.55555555555556, A
40827, 113.40833333333333, R
41126, 114.2388888888889, R
41413, 115.03611111111111, R
41707, 115.85277777777777, R
41998, 116.66111111111111, R
42286, 117.46111111111111, R
42582, 118.28333333333333, R
42876, 119.1, R
43175, 119.93055555555556, R
43473, 120.75833333333334, R
43766, 121.57222222222222, R
44061, 122.39166666666667, R
44350, 123.19444444444444, R
44642, 124.00555555555556, R
44935, 124.81944444444444, R
45231, 125.64166666666667, R
45522, 126.45, R
45810, 127.25, R
46111, 128.0861111111111, R
46405, 128.90277777777777, R
46694, 129.70555555555555, R
46991, 130.53055555555557, R
47284, 131.34444444444443, R
47568, 132.13333333333333, R
47861, 132.94722222222222, R
48147, 133.74166666666667, R
48429, 134.525, R
48714, 135.31666666666666, R
49010, 136.13888888888889, R
49295, 136.93055555555554, R
49589, 137.74722222222223, R
49881, 138.55833333333334, R
50177, 139.38055555555556, R
50475, 140.20833333333334, R
50776, 141.04444444444445, R
51080, 141.88888888888889, R
51380, 142.72222222222223, R
51683, 143.5638888888889, R
51989, 144.4138888888889, R
52293, 145.25833333333333, R
52590, 146.08333333333334, R
52895, 146.93055555555554, R
53201, 147.78055555555557, R
53503, 148.61944444444444, R
53810, 149.47222222222223, R
54117, 150.325, R
54420, 151.16666666666666, R
54728, 152.0222222222222, R
55036, 152.87777777777777, R
55336, 153.7111111111111, R
55639, 154.55277777777778, R
55950, 155.41666666666666, R
56252, 156.25555555555556, R
56554, 157.09444444444443, R
56863, 157.95277777777778, R
57158, 158.7722222222222, R
57459, 159.60833333333332, R
57758, 160.4388888888889, R
58051, 161.25277777777777, R
58350, 162.08333333333334, R
58637, 162.88055555555556, R
58933, 163.70277777777778, R
59228, 164.5222222222222, R
59522, 165.3388888888889, R
59817, 166.15833333333333, R
60111, 166.975, R
60396, 167.76666666666668, R
60686, 168.57222222222222, R
60914, 169.20555555555555, A
61234, 170.09444444444443, R
61528, 170.9111111111111, R
61824, 171.73333333333332, R
62109, 172.525, R
62399, 173.33055555555555, R
62692, 174.14444444444445, R
62976, 174.93333333333334, R
63269, 175.74722222222223, R
63560, 176.55555555555554, R
63851, 177.36388888888888, R
64144, 178.17777777777778, R
64440, 179.0, R
64520, 179.22222222222223, x
64954, 180.42777777777778, R
65276, 181.32222222222222, R
65575, 182.15277777777777, R
65870, 182.97222222222223, R
66160, 183.77777777777777, R
66446, 184.57222222222222, R
66746, 185.40555555555557, R
67037, 186.2138888888889, R
67327, 187.01944444444445, R
67625, 187.84722222222223, R
67921, 188.66944444444445, R
68213, 189.48055555555555, R
68517, 190.325, R
68821, 191.16944444444445, R
68923, 191.45277777777778, x
69375, 192.70833333333334, R
69697, 193.6027777777778, R
70008, 194.46666666666667, R
70319, 195.33055555555555, R
70614, 196.15, R
70913, 196.98055555555555, R
71208, 197.8, R
71505, 198.625, R
71752, 199.3111111111111, A
72103, 200.2861111111111, R
72342, 200.95, A
72717, 201.99166666666667, R
73038, 202.88333333333333, R
73349, 203.74722222222223, R
73664, 204.62222222222223, R
73970, 205.47222222222223, R
74268, 206.3, R
74576, 207.15555555555557, R
74877, 207.99166666666667, R
75169, 208.80277777777778, R
75459, 209.60833333333332, R
75759, 210.44166666666666, R
76057, 211.26944444444445, R
76356, 212.1, R
76657, 212.9361111111111, R
76957, 213.76944444444445, R
77256, 214.6, R
77559, 215.44166666666666, R
77863, 216.2861111111111, R
78162, 217.11666666666667, R
78461, 217.94722222222222, R
78769, 218.80277777777778, R
79075, 219.65277777777777, R
79377, 220.49166666666667, R
79680, 221.33333333333334, R
79980, 222.16666666666666, R
80282, 223.00555555555556, R
80593, 223.86944444444444, R
80858, 224.60555555555555, V
81190, 225.52777777777777, R
81492, 226.36666666666667, R
81797, 227.2138888888889, R
82091, 228.03055555555557, R
82385, 228.84722222222223, R
82680, 229.66666666666666, R
82974, 230.48333333333332, R
83268, 231.3, R
83560, 232.11111111111111, R
83855, 232.93055555555554, R
84143, 233.73055555555555, R
84427, 234.51944444444445, R
84716, 235.32222222222222, R
85004, 236.12222222222223, R
85294, 236.92777777777778, R
85586, 237.73888888888888, R
85875, 238.54166666666666, R
86163, 239.34166666666667, R
86455, 240.15277777777777, R
86753, 240.98055555555555, R
87035, 241.76388888888889, R
87321, 242.55833333333334, R
87620, 243.38888888888889, R
87905, 244.18055555555554, R
88203, 245.00833333333333, R
88495, 245.81944444444446, R
88791, 246.64166666666668, R
89098, 247.49444444444444, R
89398, 248.32777777777778, R
89702, 249.17222222222222, R
90000, 250.0, R
90300, 250.83333333333334, R
90612, 251.7, R
90924, 252.56666666666666, R
91224, 253.4, R
91530, 254.25, R
91838, 255.10555555555555, R
92147, 255.9638888888889, R
92463, 256.84166666666664, R
92780, 257.72222222222223, R
93093, 258.59166666666664, R
93418, 259.49444444444447, R
93738, 260.3833333333333, R
93918, 260.8833333333333, ~
94056, 261.26666666666665, R
94355, 262.09722222222223, R
94667, 262.9638888888889, R
94972, 263.81111111111113, R
95150, 264.30555555555554, ~
95284, 264.6777777777778, R
95580, 265.5, R
95872, 266.31111111111113, R
96163, 267.11944444444447, R
96450, 267.9166666666667, R
96744, 268.73333333333335, R
97038, 269.55, R
97326, 270.35, R
97618, 271.1611111111111, R
97914, 271.98333333333335, R
98209, 272.8027777777778, R
98513, 273.64722222222224, R
98810, 274.47222222222223, R
99025, 275.06944444444446, A
99354, 275.98333333333335, R
99661, 276.8361111111111, R
99952, 277.64444444444445, R
100242, 278.45, R
100535, 279.2638888888889, R
100758, 279.8833333333333, A
101077, 280.76944444444445, R
101384, 281.6222222222222, R
101671, 282.4194444444444, R
101959, 283.21944444444443, R
102253, 284.0361111111111, R
102488, 284.68888888888887, A
102822, 285.6166666666667, R
103143, 286.5083333333333, R
103214, 286.7055555555556, x
103669, 287.96944444444443, R
103997, 288.88055555555553, R
104297, 289.7138888888889, R
104592, 290.53333333333336, R
104895, 291.375, R
105188, 292.18888888888887, R
105466, 292.9611111111111, R
105781, 293.8361111111111, R
106076, 294.65555555555557, R
106376, 295.4888888888889, R
106668, 296.3, R
106960, 297.1111111111111, R
107269, 297.96944444444443, R
107565, 298.7916666666667, R
107858, 299.60555555555555, R
108155, 300.43055555555554, R
108450, 301.25, R
108741, 302.05833333333334, R
109014, 302.81666666666666, R
109300, 303.6111111111111, R
109576, 304.3777777777778, R
109814, 305.0388888888889, A
110121, 305.89166666666665, R
110410, 306.69444444444446, R
110694, 307.48333333333335, R
110978, 308.27222222222224, R
111265, 309.06944444444446, R
111496, 309.7111111111111, A
111823, 310.61944444444447, R
112124, 311.4555555555556, R
112425, 312.2916666666667, R
112717, 313.10277777777776, R
113008, 313.9111111111111, R
113313, 314.7583333333333, R
113603, 315.56388888888887, R
113896, 316.3777777777778, R
114195, 317.2083333333333, R
114489, 318.025, R
114786, 318.85, R
115083, 319.675, R
115381, 320.5027777777778, R
115680, 321.3333333333333, R
115977, 322.15833333333336, R
116278, 322.99444444444447, R
116580, 323.8333333333333, R
116881, 324.6694444444444, R
117177, 325.4916666666667, R
117479, 326.3305555555556, R
117779, 327.1638888888889, R
118067, 327.9638888888889, R
118362, 328.78333333333336, R
118656, 329.6, R
118949, 330.4138888888889, R
119254, 331.2611111111111, R
119550, 332.0833333333333, R
119848, 332.9111111111111, R
120146, 333.7388888888889, R
120454, 334.59444444444443, R
120756, 335.43333333333334, R
121049, 336.2472222222222, R
121358, 337.10555555555555, R
121656, 337.93333333333334, R
121959, 338.775, R
122260, 339.6111111111111, R
122555, 340.43055555555554, R
122856, 341.26666666666665, R
123139, 342.0527777777778, R
123429, 342.85833333333335, R
123731, 343.6972222222222, R
124015, 344.4861111111111, R
124310, 345.30555555555554, R
124604, 346.1222222222222, R
124894, 346.9277777777778, R
125194, 347.7611111111111, R
125474, 348.5388888888889, R
125696, 349.15555555555557, A
126043, 350.11944444444447, R
126350, 350.97222222222223, R
126650, 351.80555555555554, R
126942, 352.6166666666667, R
127155, 353.2083333333333, A
127470, 354.0833333333333, R
127705, 354.7361111111111, A
128051, 355.6972222222222, R
128284, 356.34444444444443, A
128621, 357.28055555555557, R
128853, 357.925, A
129202, 358.89444444444445, R
129502, 359.72777777777776, R
129796, 360.5444444444444, R
130000, 361.1111111111111, A
130319, 361.9972222222222, R
130615, 362.81944444444446, R
130814, 363.3722222222222, ~
130905, 363.625, R
131193, 364.425, R
131475, 365.2083333333333, R
131747, 365.9638888888889, R
132027, 366.7416666666667, R
132306, 367.51666666666665, R
132577, 368.26944444444445, R
132845, 369.0138888888889, R
133045, 369.56944444444446, ~
133122, 369.78333333333336, R
133394, 370.5388888888889, R
133665, 371.2916666666667, R
133943, 372.06388888888887, R
134223, 372.84166666666664, R
134493, 373.59166666666664, R
134769, 374.35833333333335, R
135046, 375.1277777777778, R
135312, 375.8666666666667, R
135581, 376.6138888888889, R
135841, 377.3361111111111, R
136107, 378.075, R
136370, 378.80555555555554, R
136637, 379.5472222222222, R
136901, 380.28055555555557, R
137166, 381.01666666666665, R
137431, 381.7527777777778, R
137694, 382.48333333333335, R
137964, 383.23333333333335, R
138234, 383.98333333333335, R
138500, 384.72222222222223, R
138756, 385.43333333333334, R
139028, 386.18888888888887, R
139292, 386.9222222222222, R
139554, 387.65, R
139821, 388.39166666666665, R
140091, 389.14166666666665, R
140353, 389.86944444444447, R
140616, 390.6, R
140889, 391.35833333333335, R
141153, 392.09166666666664, R
141418, 392.8277777777778, R
141653, 393.48055555555555, A
141941, 394.28055555555557, R
142199, 394.9972222222222, R
142462, 395.72777777777776, R
142720, 396.44444444444446, R
142978, 397.1611111111111, R
143232, 397.8666666666667, R
143487, 398.575, R
143740, 399.27777777777777, R
143996, 399.9888888888889, R
144250, 400.69444444444446, R
144503, 401.39722222222224, R
144750, 402.0833333333333, R
145002, 402.78333333333336, R
145256, 403.4888888888889, R
145504, 404.1777777777778, R
145759, 404.8861111111111, R
146012, 405.5888888888889, R
146260, 406.27777777777777, R
146504, 406.9555555555556, R
146759, 407.6638888888889, R
147013, 408.36944444444447, R
147260, 409.05555555555554, R
147502, 409.72777777777776, R
147749, 410.4138888888889, R
147995, 411.09722222222223, R
148238, 411.77222222222224, R
148483, 412.4527777777778, R
148729, 413.1361111111111, R
148972, 413.81111111111113, R
149215, 414.4861111111111, R
149460, 415.1666666666667, R
149706, 415.85, R
149952, 416.53333333333336, R
150198, 417.21666666666664, R
150443, 417.89722222222224, R
150682, 418.56111111111113, R
150928, 419.24444444444447, R
151171, 419.9194444444444, R
151414, 420.59444444444443, R
151654, 421.2611111111111, R
151900, 421.94444444444446, R
152140, 422.6111111111111, R
152377, 423.26944444444445, R
152614, 423.9277777777778, R
152863, 424.61944444444447, R
153104, 425.2888888888889, R
153343, 425.9527777777778, R
153581, 426.6138888888889, R
153829, 427.3027777777778, R
154066, 427.9611111111111, R
154307, 428.63055555555553, R
154553, 429.31388888888887, R
154803, 430.0083333333333, R
155044, 430.6777777777778, R
155291, 431.3638888888889, R
155536, 432.0444444444444, R
155785, 432.7361111111111, R
156029, 433.4138888888889, R
156274, 434.09444444444443, R
156515, 434.7638888888889, R
156757, 435.43611111111113, R
157002, 436.1166666666667, R
157247, 436.7972222222222, R
157489, 437.46944444444443, R
157735, 438.15277777777777, R
157983, 438.84166666666664, R
158173, 439.36944444444447, A
158457, 440.15833333333336, R
158715, 440.875, R
158969, 441.5805555555556, R
159223, 442.2861111111111, R
159473, 442.98055555555555, R
159728, 443.68888888888887, R
159980, 444.3888888888889, R
160229, 445.0805555555556, R
160483, 445.7861111111111, R
160740, 446.5, R
160989, 447.19166666666666, R
161237, 447.88055555555553, R
161485, 448.56944444444446, R
161674, 449.09444444444443, A
161949, 449.85833333333335, R
162202, 450.56111111111113, R
162450, 451.25, R
162698, 451.93888888888887, R
162946, 452.6277777777778, R
163198, 453.3277777777778, R
163454, 454.0388888888889, R
163707, 454.7416666666667, R
163965, 455.4583333333333, R
164224, 456.1777777777778, R
164478, 456.8833333333333, R
164743, 457.61944444444447, R
165003, 458.34166666666664, R
165261, 459.05833333333334, R
165518, 459.77222222222224, R
165783, 460.5083333333333, R
165956, 460.9888888888889, V
166214, 461.7055555555556, A
166529, 462.5805555555556, R
166805, 463.34722222222223, R
167068, 464.0777777777778, R
167334, 464.81666666666666, R
167601, 465.55833333333334, R
167870, 466.30555555555554, R
168135, 467.0416666666667, R
168401, 467.78055555555557, R
168665, 468.5138888888889, R
168923, 469.23055555555555, R
169185, 469.9583333333333, R
169445, 470.68055555555554, R
169708, 471.4111111111111, R
169965, 472.125, R
170222, 472.8388888888889, R
170474, 473.5388888888889, R
170740, 474.27777777777777, R
170997, 474.9916666666667, R
171260, 475.72222222222223, R
171511, 476.4194444444444, R
171776, 477.15555555555557, R
172035, 477.875, R
172294, 478.59444444444443, R
172560, 479.3333333333333, R
172824, 480.06666666666666, R
173079, 480.775, R
173330, 481.47222222222223, R
173595, 482.2083333333333, R
173848, 482.9111111111111, R
174106, 483.6277777777778, R
174357, 484.325, R
174616, 485.0444444444444, R
174864, 485.73333333333335, R
175124, 486.4555555555556, R
175381, 487.1694444444444, R
175644, 487.9, R
175895, 488.59722222222223, R
176155, 489.31944444444446, R
176413, 490.0361111111111, R
176662, 490.72777777777776, R
176941, 491.5027777777778, R
177201, 492.225, R
177457, 492.93611111111113, R
177717, 493.65833333333336, R
177888, 494.1333333333333, V
178197, 494.9916666666667, R
178503, 495.84166666666664, R
178769, 496.5805555555556, R
179030, 497.30555555555554, R
179287, 498.01944444444445, R
179555, 498.7638888888889, R
179782, 499.39444444444445, A
180073, 500.2027777777778, R
180270, 500.75, V
180602, 501.6722222222222, R
180863, 502.39722222222224, R
181122, 503.1166666666667, R
181388, 503.85555555555555, R
181647, 504.575, R
181903, 505.2861111111111, R
182162, 506.00555555555553, R
182407, 506.68611111111113, R
182681, 507.4472222222222, R
182945, 508.18055555555554, R
183200, 508.8888888888889, R
183458, 509.60555555555555, R
183715, 510.31944444444446, R
183974, 511.0388888888889, R
184187, 511.63055555555553, A
184479, 512.4416666666667, R
184739, 513.1638888888889, R
184997, 513.8805555555556, R
185254, 514.5944444444444, R
185534, 515.3722222222223, R
185779, 516.0527777777778, R
186032, 516.7555555555556, R
186283, 517.4527777777778, R
186472, 517.9777777777778, A
186756, 518.7666666666667, R
187010, 519.4722222222222, R
187269, 520.1916666666667, R
187526, 520.9055555555556, R
187772, 521.5888888888888, R
188023, 522.2861111111112, R
188274, 522.9833333333333, R
188526, 523.6833333333333, R
188774, 524.3722222222223, R
189025, 525.0694444444445, R
189273, 525.7583333333333, R
189520, 526.4444444444445, R
189767, 527.1305555555556, R
190019, 527.8305555555555, R
190267, 528.5194444444444, R
190514, 529.2055555555555, R
190763, 529.8972222222222, R
190944, 530.4, A
191222, 531.1722222222222, R
191480, 531.8888888888889, R
191729, 532.5805555555555, R
191977, 533.2694444444444, R
192225, 533.9583333333334, R
192477, 534.6583333333333, R
192723, 535.3416666666667, R
192969, 536.025, R
193221, 536.725, R
193445, 537.3472222222222, R
193719, 538.1083333333333, R
193973, 538.8138888888889, R
194237, 539.5472222222222, R
194496, 540.2666666666667, R
194756, 540.9888888888889, R
195018, 541.7166666666667, R
195285, 542.4583333333334, R
195547, 543.1861111111111, R
195813, 543.925, R
196077, 544.6583333333333, R
196344, 545.4, R
196610, 546.1388888888889, R
196880, 546.8888888888889, R
197150, 547.6388888888889, R
197422, 548.3944444444444, R
197691, 549.1416666666667, R
197961, 549.8916666666667, R
198230, 550.6388888888889, R
198502, 551.3944444444444, R
198772, 552.1444444444444, R
199046, 552.9055555555556, R
199324, 553.6777777777778, R
199600, 554.4444444444445, R
199791, 554.975, A
200095, 555.8194444444445, R
200380, 556.6111111111111, R
200575, 557.1527777777778, A
200891, 558.0305555555556, R
201165, 558.7916666666666, R
201442, 559.5611111111111, R
201715, 560.3194444444445, R
201995, 561.0972222222222, R
202273, 561.8694444444444, R
202553, 562.6472222222222, R
202835, 563.4305555555555, R
203115, 564.2083333333334, R
203401, 565.0027777777777, R
203685, 565.7916666666666, R
203965, 566.5694444444445, R
204247, 567.3527777777778, R
204421, 567.8361111111111, V
204808, 568.9111111111112, R
205089, 569.6916666666667, R
205375, 570.4861111111111, R
205652, 571.2555555555556, R
205925, 572.0138888888889, R
206210, 572.8055555555555, R
206491, 573.5861111111111, R
206770, 574.3611111111111, R
207049, 575.1361111111111, R
207335, 575.9305555555555, R
207611, 576.6972222222222, R
207889, 577.4694444444444, R
208170, 578.25, R
208444, 579.0111111111111, R
208723, 579.7861111111112, R
208996, 580.5444444444445, R
209275, 581.3194444444445, R
209552, 582.0888888888888, R
209830, 582.8611111111111, R
210104, 583.6222222222223, R
210383, 584.3972222222222, R
210660, 585.1666666666666, R
210934, 585.9277777777778, R
211217, 586.7138888888888, R
211489, 587.4694444444444, R
211755, 588.2083333333334, R
212023, 588.9527777777778, R
212298, 589.7166666666667, R
212567, 590.4638888888888, R
212832, 591.2, R
213104, 591.9555555555555, R
213374, 592.7055555555555, R
213643, 593.4527777777778, R
213917, 594.2138888888888, R
214197, 594.9916666666667, R
214468, 595.7444444444444, R
214744, 596.5111111111111, R
215023, 597.2861111111112, R
215302, 598.0611111111111, R
215586, 598.85, R
215862, 599.6166666666667, R
216142, 600.3944444444444, R
216422, 601.1722222222222, R
216701, 601.9472222222222, R
216981, 602.725, R
217180, 603.2777777777778, A
217486, 604.1277777777777, R
217763, 604.8972222222222, R
218041, 605.6694444444445, R
218318, 606.4388888888889, R
218593, 607.2027777777778, R
218860, 607.9444444444445, R
219137, 608.7138888888888, R
219410, 609.4722222222222, R
219682, 610.2277777777778, R
219961, 611.0027777777777, R
220237, 611.7694444444444, R
220507, 612.5194444444444, R
220782, 613.2833333333333, R
221065, 614.0694444444445, R
221331, 614.8083333333333, R
221609, 615.5805555555555, R
221883, 616.3416666666667, R
222157, 617.1027777777778, R
222426, 617.85, R
222698, 618.6055555555556, R
222973, 619.3694444444444, R
223246, 620.1277777777777, R
223521, 620.8916666666667, R
223793, 621.6472222222222, R
224067, 622.4083333333333, R
224343, 623.175, R
224617, 623.9361111111111, R
224895, 624.7083333333334, R
225166, 625.4611111111111, R
225441, 626.225, R
225715, 626.9861111111111, R
226001, 627.7805555555556, R
226272, 628.5333333333333, R
226463, 629.0638888888889, A
226767, 629.9083333333333, R
227053, 630.7027777777778, R
227324, 631.4555555555555, R
227593, 632.2027777777778, R
227866, 632.9611111111111, R
228125, 633.6805555555555, R
228396, 634.4333333333333, R
228669, 635.1916666666667, R
228946, 635.9611111111111, R
229218, 636.7166666666667, R
229495, 637.4861111111111, R
229770, 638.25, R
230045, 639.0138888888889, R
230330, 639.8055555555555, R
230602, 640.5611111111111, R
230877, 641.325, R
231154, 642.0944444444444, R
231427, 642.8527777777778, R
231699, 643.6083333333333, R
231983, 644.3972222222222, R
232255, 645.1527777777778, R
232524, 645.9, R
232803, 646.675, R
233080, 647.4444444444445, R
233361, 648.225, R
233625, 648.9583333333334, R
233905, 649.7361111111111, R
234188, 650.5222222222222, R
234464, 651.2888888888889, R
234753, 652.0916666666667, R
234950, 652.6388888888889, A
235257, 653.4916666666667, R
235535, 654.2638888888889, R
235819, 655.0527777777778, R
236097, 655.825, R
236376, 656.6, R
236650, 657.3611111111111, R
236932, 658.1444444444444, R
237216, 658.9333333333333, R
237502, 659.7277777777778, R
237789, 660.525, R
238075, 661.3194444444445, R
238361, 662.1138888888889, R
238646, 662.9055555555556, R
238944, 663.7333333333333, R
239229, 664.525, R
239424, 665.0666666666667, A
239740, 665.9444444444445, R
240025, 666.7361111111111, R
240312, 667.5333333333333, R
240529, 668.1361111111111, A
240878, 669.1055555555556, R
241173, 669.925, R
241473, 670.7583333333333, R
241777, 671.6027777777778, R
242075, 672.4305555555555, R
242384, 673.2888888888889, R
242686, 674.1277777777777, R
242996, 674.9888888888889, R
243313, 675.8694444444444, R
243618, 676.7166666666667, R
243934, 677.5944444444444, R
244242, 678.45, R
244545, 679.2916666666666, R
244863, 680.175, R
245173, 681.0361111111112, R
245473, 681.8694444444444, R
245785, 682.7361111111111, R
246091, 683.5861111111111, R
246389, 684.4138888888889, R
246693, 685.2583333333333, R
246993, 686.0916666666667, R
247287, 686.9083333333333, R
247587, 687.7416666666667, R
247889, 688.5805555555555, R
248187, 689.4083333333333, R
248481, 690.225, R
248784, 691.0666666666667, R
249097, 691.9361111111111, R
249408, 692.8, R
249721, 693.6694444444445, R
250043, 694.5638888888889, R
250362, 695.45, R
250677, 696.325, R
250998, 697.2166666666667, R
251315, 698.0972222222222, R
251628, 698.9666666666667, R
251946, 699.85, R
252253, 700.7027777777778, R
252563, 701.5638888888889, R
252873, 702.425, R
253169, 703.2472222222223, R
253370, 703.8055555555555, A
253715, 704.7638888888889, R
254020, 705.6111111111111, R
254329, 706.4694444444444, R
254644, 707.3444444444444, R
254954, 708.2055555555555, R
255276, 709.1, R
255600, 710.0, R
255916, 710.8777777777777, R
256232, 711.7555555555556, R
256549, 712.6361111111111, R
256866, 713.5166666666667, R
257184, 714.4, R
257491, 715.2527777777777, R
257805, 716.125, R
258118, 716.9944444444444, R
258430, 717.8611111111111, R
258747, 718.7416666666667, R
259057, 719.6027777777778, R
259366, 720.4611111111111, R
259682, 721.3388888888888, R
259987, 722.1861111111111, R
260291, 723.0305555555556, R
260598, 723.8833333333333, R
260899, 724.7194444444444, R
261121, 725.3361111111111, A
261481, 726.3361111111111, R
261780, 727.1666666666666, R
262084, 728.0111111111111, R
262388, 728.8555555555556, R
262594, 729.4277777777778, A
262921, 730.3361111111111, R
263216, 731.1555555555556, R
263414, 731.7055555555555, A
263733, 732.5916666666667, R
263961, 733.225, A
264290, 734.1388888888889, R
264579, 734.9416666666667, R
264862, 735.7277777777778, R
265138, 736.4944444444444, R
265425, 737.2916666666666, R
265702, 738.0611111111111, R
265980, 738.8333333333334, R
266252, 739.5888888888888, R
266535, 740.375, R
266808, 741.1333333333333, R
267083, 741.8972222222222, R
267368, 742.6888888888889, R
267642, 743.45, R
267814, 743.9277777777778, V
268180, 744.9444444444445, R
268455, 745.7083333333334, R
268720, 746.4444444444445, R
268990, 747.1944444444445, R
269217, 747.825, A
269262, 747.95, ~
269511, 748.6416666666667, R
269712, 749.2, ~
269779, 749.3861111111111, R
270050, 750.1388888888889, R
270317, 750.8805555555556, R
270586, 751.6277777777777, R
270856, 752.3777777777777, R
271122, 753.1166666666667, R
271396, 753.8777777777777, R
271667, 754.6305555555556, R
271933, 755.3694444444444, R
272193, 756.0916666666667, R
272413, 756.7027777777778, A
272712, 757.5333333333333, R
272976, 758.2666666666667, R
273246, 759.0166666666667, R
273516, 759.7666666666667, R
273777, 760.4916666666667, R
273967, 761.0194444444444, A
274271, 761.8638888888889, R
274538, 762.6055555555556, R
274806, 763.35, R
275067, 764.075, R
275339, 764.8305555555555, R
275546, 765.4055555555556, A
275853, 766.2583333333333, R
276126, 767.0166666666667, R
276398, 767.7722222222222, R
276666, 768.5166666666667, R
276932, 769.2555555555556, R
277191, 769.975, R
277460, 770.7222222222222, R
277682, 771.3388888888888, A
277974, 772.15, R
278238, 772.8833333333333, R
278496, 773.6, R
278758, 774.3277777777778, R
279014, 775.0388888888889, R
279247, 775.6861111111111, A
279535, 776.4861111111111, R
279801, 777.225, R
280069, 777.9694444444444, R
280349, 778.7472222222223, R
280617, 779.4916666666667, R
280893, 780.2583333333333, R
281168, 781.0222222222222, R
281439, 781.775, R
281717, 782.5472222222222, R
282003, 783.3416666666667, R
282289, 784.1361111111111, R
282568, 784.9111111111112, R
282853, 785.7027777777778, R
283144, 786.5111111111111, R
283432, 787.3111111111111, R
283722, 788.1166666666667, R
284006, 788.9055555555556, R
284295, 789.7083333333334, R
284582, 790.5055555555556, R
284865, 791.2916666666666, R
285154, 792.0944444444444, R
285449, 792.9138888888889, R
285732, 793.7, R
286016, 794.4888888888889, R
286313, 795.3138888888889, R
286528, 795.9111111111112, A
286837, 796.7694444444444, R
287137, 797.6027777777778, R
287433, 798.425, R
287725, 799.2361111111111, R
288017, 800.0472222222222, R
288312, 800.8666666666667, R
288600, 801.6666666666666, R
288896, 802.4888888888889, R
289193, 803.3138888888889, R
289490, 804.1388888888889, R
289793, 804.9805555555556, R
290085, 805.7916666666666, R
290382, 806.6166666666667, R
290680, 807.4444444444445, R
290975, 808.2638888888889, R
291273, 809.0916666666667, R
291562, 809.8944444444444, R
291846, 810.6833333333333, R
292070, 811.3055555555555, A
292367, 812.1305555555556, R
292649, 812.9138888888889, R
292922, 813.6722222222222, R
293206, 814.4611111111111, R
293481, 815.225, R
293758, 815.9944444444444, R
294045, 816.7916666666666, R
294330, 817.5833333333334, R
294612, 818.3666666666667, R
294898, 819.1611111111112, R
295193, 819.9805555555556, R
295478, 820.7722222222222, R
295769, 821.5805555555555, R
296057, 822.3805555555556, R
296343, 823.175, R
296640, 824.0, R
296928, 824.8, R
297222, 825.6166666666667, R
297515, 826.4305555555555, R
297805, 827.2361111111111, R
298107, 828.075, R
298402, 828.8944444444444, R
298695, 829.7083333333334, R
298993, 830.5361111111112, R
299288, 831.3555555555556, R
299580, 832.1666666666666, R
299687, 832.4638888888888, x
300145, 833.7361111111111, R
300468, 834.6333333333333, R
300778, 835.4944444444444, R
301089, 836.3583333333333, R
301381, 837.1694444444445, R
301668, 837.9666666666667, R
301958, 838.7722222222222, R
302242, 839.5611111111111, R
302533, 840.3694444444444, R
302823, 841.175, R
303108, 841.9666666666667, R
303395, 842.7638888888889, R
303676, 843.5444444444445, R
303960, 844.3333333333334, R
304244, 845.1222222222223, R
304524, 845.9, R
304796, 846.6555555555556, R
305077, 847.4361111111111, R
305354, 848.2055555555555, R
305576, 848.8222222222222, A
306016, 850.0444444444445, R
306322, 850.8944444444444, R
306600, 851.6666666666666, R
306885, 852.4583333333334, R
307100, 853.0555555555555, A
307394, 853.8722222222223, R
307675, 854.6527777777778, R
307952, 855.4222222222222, R
308225, 856.1805555555555, R
308496, 856.9333333333333, R
308775, 857.7083333333334, R
309048, 858.4666666666667, R
309318, 859.2166666666667, R
309535, 859.8194444444445, A
309820, 860.6111111111111, R
310099, 861.3861111111111, R
310382, 862.1722222222222, R
310657, 862.9361111111111, R
310750, 863.1944444444445, x
311151, 864.3083333333333, R
311455, 865.1527777777778, R
311734, 865.9277777777778, R
312016, 866.7111111111111, R
312292, 867.4777777777778, R
312559, 868.2194444444444, R
312844, 869.0111111111111, R
313117, 869.7694444444444, R
313388, 870.5222222222222, R
313666, 871.2944444444445, R
313947, 872.075, R
314160, 872.6666666666666, A
314461, 873.5027777777777, R
314762, 874.3388888888888, R
315044, 875.1222222222223, R
315333, 875.925, R
315617, 876.7138888888888, R
315902, 877.5055555555556, R
316186, 878.2944444444445, R
316470, 879.0833333333334, R
316755, 879.875, R
317033, 880.6472222222222, R
317320, 881.4444444444445, R
317603, 882.2305555555556, R
317887, 883.0194444444444, R
318174, 883.8166666666667, R
318459, 884.6083333333333, R
318752, 885.4222222222222, R
319041, 886.225, R
319333, 887.0361111111112, R
319550, 887.6388888888889, A
319919, 888.6638888888889, R
320241, 889.5583333333333, R
320550, 890.4166666666666, R
320863, 891.2861111111112, R
321161, 892.1138888888889, R
321454, 892.9277777777778, R
321755, 893.7638888888889, R
322043, 894.5638888888889, R
322330, 895.3611111111111, R
322622, 896.1722222222222, R
322906, 896.9611111111111, R
323196, 897.7666666666667, R
323494, 898.5944444444444, R
323786, 899.4055555555556, R
324079, 900.2194444444444, R
324370, 901.0277777777778, R
324665, 901.8472222222222, R
324957, 902.6583333333333, R
325247, 903.4638888888888, R
325528, 904.2444444444444, R
325821, 905.0583333333333, R
326110, 905.8611111111111, R
326403, 906.675, R
326699, 907.4972222222223, R
326987, 908.2972222222222, R
327277, 909.1027777777778, R
327567, 909.9083333333333, R
327864, 910.7333333333333, R
328154, 911.5388888888889, R
328440, 912.3333333333334, R
328732, 913.1444444444444, R
329011, 913.9194444444445, R
329302, 914.7277777777778, R
329591, 915.5305555555556, R
329877, 916.325, R
330105, 916.9583333333334, A
330544, 918.1777777777778, R
330888, 919.1333333333333, R
331195, 919.9861111111111, R
331478, 920.7722222222222, R
331771, 921.5861111111111, R
332060, 922.3888888888889, R
332341, 923.1694444444445, R
332637, 923.9916666666667, R
332920, 924.7777777777778, R
333203, 925.5638888888889, R
333491, 926.3638888888889, R
333781, 927.1694444444445, R
334069, 927.9694444444444, R
334349, 928.7472222222223, R
334640, 929.5555555555555, R
334922, 930.3388888888888, R
335207, 931.1305555555556, R
335498, 931.9388888888889, R
335784, 932.7333333333333, R
336069, 933.525, R
336354, 934.3166666666667, R
336643, 935.1194444444444, R
336928, 935.9111111111112, R
337213, 936.7027777777778, R
337492, 937.4777777777778, R
337774, 938.2611111111111, R
338062, 939.0611111111111, R
338346, 939.85, R
338632, 940.6444444444444, R
338917, 941.4361111111111, R
339191, 942.1972222222222, R
339406, 942.7944444444445, A
339706, 943.6277777777777, R
339994, 944.4277777777778, R
340263, 945.175, R
340546, 945.9611111111111, R
340821, 946.725, R
341094, 947.4833333333333, R
341377, 948.2694444444444, R
341658, 949.05, R
341930, 949.8055555555555, R
342212, 950.5888888888888, R
342497, 951.3805555555556, R
342719, 951.9972222222223, A
343153, 953.2027777777778, R
343455, 954.0416666666666, R
343734, 954.8166666666667, R
344014, 955.5944444444444, R
344287, 956.3527777777778, R
344565, 957.125, R
344838, 957.8833333333333, R
345068, 958.5222222222222, A
345370, 959.3611111111111, R
345656, 960.1555555555556, R
345862, 960.7277777777778, V
346202, 961.6722222222222, R
346488, 962.4666666666667, R
346766, 963.2388888888889, R
347045, 964.0138888888889, R
347324, 964.7888888888889, R
347601, 965.5583333333333, R
347880, 966.3333333333334, R
348161, 967.1138888888889, R
348454, 967.9277777777778, R
348731, 968.6972222222222, R
349008, 969.4666666666667, R
349293, 970.2583333333333, R
349572, 971.0333333333333, R
349855, 971.8194444444445, R
350146, 972.6277777777777, R
350434, 973.4277777777778, R
350707, 974.1861111111111, R
350935, 974.8194444444445, A
351242, 975.6722222222222, R
351531, 976.475, R
351818, 977.2722222222222, R
352095, 978.0416666666666, R
352374, 978.8166666666667, R
352649, 979.5805555555555, R
352927, 980.3527777777778, R
353212, 981.1444444444444, R
353495, 981.9305555555555, R
353770, 982.6944444444445, R
354045, 983.4583333333334, R
354287, 984.1305555555556, A
354603, 985.0083333333333, R
354895, 985.8194444444445, R
355183, 986.6194444444444, R
355458, 987.3833333333333, R
355740, 988.1666666666666, R
356026, 988.9611111111111, R
356304, 989.7333333333333, R
356581, 990.5027777777777, R
356862, 991.2833333333333, R
357142, 992.0611111111111, R
357419, 992.8305555555555, R
357704, 993.6222222222223, R
357978, 994.3833333333333, R
358260, 995.1666666666666, R
358540, 995.9444444444445, R
358817, 996.7138888888888, R
359097, 997.4916666666667, R
359278, 997.9944444444444, V
359664, 999.0666666666667, R
359949, 999.8583333333333, R
360237, 1000.6583333333333, R
360518, 1001.4388888888889, R
360795, 1002.2083333333334, R
361077, 1002.9916666666667, R
361363, 1003.7861111111112, R
361647, 1004.575, R
361868, 1005.1888888888889, A
362183, 1006.0638888888889, R
362495, 1006.9305555555555, R
362796, 1007.7666666666667, R
363100, 1008.6111111111111, R
363396, 1009.4333333333333, R
363696, 1010.2666666666667, R
363991, 1011.0861111111111, R
364294, 1011.9277777777778, R
364589, 1012.7472222222223, R
364887, 1013.575, R
365188, 1014.4111111111112, R
365483, 1015.2305555555556, R
365776, 1016.0444444444445, R
366075, 1016.875, R
366178, 1017.1611111111112, x
366634, 1018.4277777777778, R
366934, 1019.2611111111111, R
367243, 1020.1194444444444, R
367535, 1020.9305555555555, R
367829, 1021.7472222222223, R
368127, 1022.575, R
368415, 1023.375, R
368702, 1024.1722222222222, R
368992, 1024.9777777777779, R
369283, 1025.786111111111, R
369570, 1026.5833333333333, R
369859, 1027.3861111111112, R
370148, 1028.1888888888889, R
370437, 1028.9916666666666, R
370726, 1029.7944444444445, R
371016, 1030.6, R
371309, 1031.4138888888888, R
371596, 1032.2111111111112, R
371878, 1032.9944444444445, R
372168, 1033.8, R
372453, 1034.5916666666667, R
372728, 1035.3555555555556, R
373006, 1036.1277777777777, R
373290, 1036.9166666666667, R
373567, 1037.6861111111111, R
373851, 1038.475, R
374143, 1039.286111111111, R
374425, 1040.0694444444443, R
374709, 1040.8583333333333, R
375002, 1041.6722222222222, R
375293, 1042.4805555555556, R
375584, 1043.2888888888888, R
375874, 1044.0944444444444, R
376163, 1044.8972222222221, R
376448, 1045.6888888888889, R
376742, 1046.5055555555555, R
376957, 1047.1027777777779, A
377278, 1047.9944444444445, R
377579, 1048.8305555555555, R
377872, 1049.6444444444444, R
378169, 1050.4694444444444, R
378464, 1051.2888888888888, R
378747, 1052.075, R
379044, 1052.9, R
379138, 1053.161111111111, x
379576, 1054.3777777777777, R
379885, 1055.236111111111, R
380188, 1056.0777777777778, R
380479, 1056.8861111111112, R
380772, 1057.7, R
381073, 1058.536111111111, R
381358, 1059.3277777777778, R
381642, 1060.1166666666666, R
381933, 1060.925, R
382212, 1061.7, R
382498, 1062.4944444444445, R
382789, 1063.3027777777777, R
383079, 1064.1083333333333, R
383369, 1064.9138888888888, R
383666, 1065.7388888888888, R
383955, 1066.5416666666667, R
384260, 1067.388888888889, R
384559, 1068.2194444444444, R
384856, 1069.0444444444445, R
385147, 1069.8527777777779, R
385444, 1070.6777777777777, R
385735, 1071.486111111111, R
386031, 1072.3083333333334, R
386326, 1073.1277777777777, R
386613, 1073.925, R
386917, 1074.7694444444444, R
387211, 1075.5861111111112, R
387497, 1076.3805555555555, R
387797, 1077.213888888889, R
388086, 1078.0166666666667, R
388375, 1078.8194444444443, R
388671, 1079.6416666666667, R
388965, 1080.4583333333333, R
389252, 1081.2555555555555, R
389535, 1082.0416666666667, R
389821, 1082.8361111111112, R
390106, 1083.6277777777777, R
390391, 1084.4194444444445, R
390681, 1085.225, R
390955, 1085.986111111111, R
391237, 1086.7694444444444, R
391518, 1087.55, R
391804, 1088.3444444444444, R
392087, 1089.1305555555555, R
392372, 1089.9222222222222, R
392668, 1090.7444444444445, R
392958, 1091.55, R
393253, 1092.3694444444445, R
393541, 1093.1694444444445, R
393840, 1094.0, R
394135, 1094.8194444444443, R
394429, 1095.6361111111112, R
394736, 1096.4888888888888, R
395033, 1097.3138888888889, R
395325, 1098.125, R
395631, 1098.975, R
395931, 1099.8083333333334, R
396228, 1100.6333333333334, R
396521, 1101.4472222222223, R
396804, 1102.2333333333333, R
397096, 1103.0444444444445, R
397395, 1103.875, R
397691, 1104.6972222222223, R
397984, 1105.5111111111112, R
398272, 1106.3111111111111, R
398567, 1107.1305555555555, R
398860, 1107.9444444444443, R
399155, 1108.763888888889, R
399365, 1109.3472222222222, A
399668, 1110.1888888888889, R
399976, 1111.0444444444445, R
400261, 1111.8361111111112, R
400565, 1112.6805555555557, R
400867, 1113.5194444444444, R
401161, 1114.3361111111112, R
401464, 1115.1777777777777, R
401775, 1116.0416666666667, R
402073, 1116.8694444444445, R
402368, 1117.6888888888889, R
402669, 1118.525, R
402962, 1119.338888888889, R
403259, 1120.1638888888888, R
403561, 1121.0027777777777, R
403848, 1121.8, R
404137, 1122.6027777777779, R
404448, 1123.4666666666667, R
404750, 1124.3055555555557, R
405041, 1125.1138888888888, R
405342, 1125.95, R
405639, 1126.775, R
405936, 1127.6, R
406234, 1128.4277777777777, R
406529, 1129.2472222222223, R
406750, 1129.861111111111, A
407067, 1130.7416666666666, R
407367, 1131.575, R
407676, 1132.4333333333334, R
407976, 1133.2666666666667, R
408269, 1134.0805555555555, R
408575, 1134.9305555555557, R
408871, 1135.7527777777777, R
409172, 1136.588888888889, R
409481, 1137.4472222222223, R
409570, 1137.6944444444443, x
410022, 1138.95, R
410336, 1139.8222222222223, R
410645, 1140.6805555555557, R
410954, 1141.5388888888888, R
411251, 1142.3638888888888, R
411554, 1143.2055555555555, R
411861, 1144.0583333333334, R
412164, 1144.9, R
412466, 1145.7388888888888, R
412768, 1146.5777777777778, R
413068, 1147.411111111111, R
413370, 1148.25, R
413678, 1149.1055555555556, R
413979, 1149.9416666666666, R
414279, 1150.775, R
414585, 1151.625, R
414891, 1152.475, R
415193, 1153.3138888888889, R
415503, 1154.175, R
415801, 1155.0027777777777, R
416099, 1155.8305555555555, R
416410, 1156.6944444444443, R
416709, 1157.525, R
417003, 1158.3416666666667, R
417303, 1159.175, R
417597, 1159.9916666666666, R
417892, 1160.8111111111111, R
418191, 1161.6416666666667, R
418495, 1162.486111111111, R
418790, 1163.3055555555557, R
419081, 1164.1138888888888, R
419381, 1164.9472222222223, R
419676, 1165.7666666666667, R
419962, 1166.5611111111111, R
420246, 1167.35, R
420543, 1168.175, R
420833, 1168.9805555555556, R
421118, 1169.7722222222221, R
421410, 1170.5833333333333, R
421696, 1171.3777777777777, R
421978, 1172.161111111111, R
422265, 1172.9583333333333, R
422506, 1173.6277777777777, A
422814, 1174.4833333333333, R
423098, 1175.2722222222221, R
423388, 1176.0777777777778, R
423666, 1176.85, R
423946, 1177.6277777777777, R
424181, 1178.2805555555556, A
424482, 1179.1166666666666, R
424765, 1179.9027777777778, R
425038, 1180.661111111111, R
425315, 1181.4305555555557, R
425588, 1182.1888888888889, R
425863, 1182.9527777777778, R
426136, 1183.7111111111112, R
426414, 1184.4833333333333, R
426697, 1185.2694444444444, R
426979, 1186.0527777777777, R
427273, 1186.8694444444445, R
427558, 1187.661111111111, R
427842, 1188.45, R
428136, 1189.2666666666667, R
428423, 1190.0638888888889, R
428712, 1190.8666666666666, R
428996, 1191.6555555555556, R
429284, 1192.4555555555555, R
429567, 1193.2416666666666, R
429856, 1194.0444444444445, R
430144, 1194.8444444444444, R
430422, 1195.6166666666666, R
430651, 1196.2527777777777, A
430984, 1197.1777777777777, R
431279, 1197.9972222222223, R
431569, 1198.8027777777777, R
431854, 1199.5944444444444, R
432147, 1200.4083333333333, R
432440, 1201.2222222222222, R
432735, 1202.0416666666667, R
433033, 1202.8694444444445, R
433330, 1203.6944444444443, R
433625, 1204.513888888889, R
433916, 1205.3222222222223, R
434222, 1206.1722222222222, R
434521, 1207.0027777777777, R
434814, 1207.8166666666666, R
435114, 1208.65, R
435411, 1209.475, R
435707, 1210.2972222222222, R
436010, 1211.138888888889, R
436305, 1211.9583333333333, R
436597, 1212.7694444444444, R
436898, 1213.6055555555556, R
437202, 1214.45, R
437503, 1215.286111111111, R
437807, 1216.1305555555555, R
438107, 1216.963888888889, R
438409, 1217.8027777777777, R
438717, 1218.6583333333333, R
439019, 1219.4972222222223, R
439323, 1220.3416666666667, R
439624, 1221.1777777777777, R
439923, 1222.0083333333334, R
440228, 1222.8555555555556, R
440534, 1223.7055555555555, R
440823, 1224.5083333333334, R
441126, 1225.35, R
441426, 1226.1833333333334, R
441717, 1226.9916666666666, R
442025, 1227.8472222222222, R
442323, 1228.675, R
442611, 1229.475, R
442908, 1230.3, R
443207, 1231.1305555555555, R
443499, 1231.9416666666666, R
443786, 1232.7388888888888, R
444078, 1233.55, R
444363, 1234.3416666666667, R
444655, 1235.1527777777778, R
444950, 1235.9722222222222, R
445233, 1236.7583333333334, R
445521, 1237.5583333333334, R
445793, 1238.3138888888889, R
446088, 1239.1333333333334, R
446381, 1239.9472222222223, R
446665, 1240.736111111111, R
446953, 1241.536111111111, R
447237, 1242.325, R
447520, 1243.111111111111, R
447726, 1243.6833333333334, A
448038, 1244.55, R
448326, 1245.35, R
448610, 1246.138888888889, R
448911, 1246.975, R
449204, 1247.7888888888888, R
449494, 1248.5944444444444, R
449787, 1249.4083333333333, R
450083, 1250.2305555555556, R
450373, 1251.036111111111, R
450673, 1251.8694444444445, R
450974, 1252.7055555555555, R
451270, 1253.5277777777778, R
451570, 1254.361111111111, R
451875, 1255.2083333333333, R
452175, 1256.0416666666667, R
452484, 1256.9, R
452779, 1257.7194444444444, R
453085, 1258.5694444444443, R
453396, 1259.4333333333334, R
453701, 1260.2805555555556, R
454014, 1261.15, R
454323, 1262.0083333333334, R
454625, 1262.8472222222222, R
454941, 1263.725, R
455249, 1264.5805555555555, R
455556, 1265.4333333333334, R
455866, 1266.2944444444445, R
456176, 1267.1555555555556, R
456487, 1268.0194444444444, R
456804, 1268.9, R
457112, 1269.7555555555555, R
457423, 1270.6194444444445, R
457737, 1271.4916666666666, R
458050, 1272.361111111111, R
458356, 1273.2111111111112, R
458656, 1274.0444444444445, R
458965, 1274.9027777777778, R
459269, 1275.7472222222223, R
459572, 1276.588888888889, R
459882, 1277.45, R
460182, 1278.2833333333333, R
460477, 1279.1027777777779, R
460789, 1279.9694444444444, R
461089, 1280.8027777777777, R
461385, 1281.625, R
461691, 1282.475, R
461996, 1283.3222222222223, R
462296, 1284.1555555555556, R
462607, 1285.0194444444444, R
462913, 1285.8694444444445, R
463206, 1286.6833333333334, R
463507, 1287.5194444444444, R
463811, 1288.3638888888888, R
464100, 1289.1666666666667, R
464389, 1289.9694444444444, R
464690, 1290.8055555555557, R
464977, 1291.6027777777779, R
465271, 1292.4194444444445, R
465576, 1293.2666666666667, R
465867, 1294.075, R
466168, 1294.911111111111, R
466472, 1295.7555555555555, R
466771, 1296.5861111111112, R
467070, 1297.4166666666667, R
467363, 1298.2305555555556, R
467665, 1299.0694444444443, R
467961, 1299.8916666666667, R
468251, 1300.6972222222223, R
468554, 1301.5388888888888, R
468847, 1302.3527777777779, R
469137, 1303.1583333333333, R
469436, 1303.9888888888888, R
469736, 1304.8222222222223, R
470031, 1305.6416666666667, R
470323, 1306.4527777777778, R
470630, 1307.3055555555557, R
470924, 1308.1222222222223, R
471224, 1308.9555555555555, R
471533, 1309.8138888888889, R
471832, 1310.6444444444444, R
472129, 1311.4694444444444, R
472436, 1312.3222222222223, R
472733, 1313.1472222222221, R
473035, 1313.986111111111, R
473329, 1314.8027777777777, R
473626, 1315.6277777777777, R
473932, 1316.4777777777779, R
474234, 1317.3166666666666, R
474539, 1318.1638888888888, R
474846, 1319.0166666666667, R
475151, 1319.8638888888888, R
475463, 1320.7305555555556, R
475774, 1321.5944444444444, R
476081, 1322.4472222222223, R
476389, 1323.3027777777777, R
476701, 1324.1694444444445, R
477006, 1325.0166666666667, R
477321, 1325.8916666666667, R
477630, 1326.75, R
477935, 1327.5972222222222, R
478248, 1328.4666666666667, R
478564, 1329.3444444444444, R
478872, 1330.2, R
479181, 1331.0583333333334, R
479496, 1331.9333333333334, R
479805, 1332.7916666666667, R
479884, 1333.0111111111112, x
480367, 1334.3527777777779, R
480685, 1335.236111111111, R
480992, 1336.088888888889, R
481291, 1336.9194444444445, R
481582, 1337.7277777777779, R
481875, 1338.5416666666667, R
482151, 1339.3083333333334, R
482440, 1340.111111111111, R
482682, 1340.7833333333333, A
482995, 1341.6527777777778, R
483301, 1342.5027777777777, R
483601, 1343.3361111111112, R
483894, 1344.15, R
484198, 1344.9944444444445, R
484506, 1345.85, R
484801, 1346.6694444444445, R
485094, 1347.4833333333333, R
485400, 1348.3333333333333, R
485695, 1349.1527777777778, R
485990, 1349.9722222222222, R
486296, 1350.8222222222223, R
486592, 1351.6444444444444, R
486889, 1352.4694444444444, R
487185, 1353.2916666666667, R
487489, 1354.1361111111112, R
487790, 1354.9722222222222, R
488082, 1355.7833333333333, R
488388, 1356.6333333333334, R
488626, 1357.2944444444445, A
488984, 1358.2888888888888, R
489105, 1358.625, x
489189, 1358.8583333333333, V
489575, 1359.9305555555557, R
489881, 1360.7805555555556, R
490195, 1361.6527777777778, R
490505, 1362.513888888889, R
490810, 1363.361111111111, R
491116, 1364.2111111111112, R
491427, 1365.075, R
491656, 1365.7111111111112, A
492022, 1366.7277777777779, R
492358, 1367.661111111111, R
492679, 1368.5527777777777, R
492999, 1369.4416666666666, R
493319, 1370.3305555555555, R
493640, 1371.2222222222222, R
493951, 1372.0861111111112, R
494261, 1372.9472222222223, R
494571, 1373.8083333333334, R
494885, 1374.6805555555557, R
495199, 1375.5527777777777, R
495512, 1376.4222222222222, R
495825, 1377.2916666666667, R
496142, 1378.1722222222222, R
496462, 1379.0611111111111, R
496778, 1379.9388888888889, R
497004, 1380.5666666666666, A
497375, 1381.5972222222222, R
497707, 1382.5194444444444, R
497897, 1383.0472222222222, V
498348, 1384.3, R
498663, 1385.175, R
498977, 1386.0472222222222, R
499212, 1386.7, A
499575, 1387.7083333333333, R
499905, 1388.625, R
500230, 1389.5277777777778, R
500552, 1390.4222222222222, R
500874, 1391.3166666666666, R
501203, 1392.2305555555556, R
501524, 1393.1222222222223, R
501841, 1394.0027777777777, R
502163, 1394.8972222222221, R
502475, 1395.763888888889, R
502783, 1396.6194444444445, R
503104, 1397.5111111111112, R
503330, 1398.138888888889, A
503699, 1399.1638888888888, R
504039, 1400.1083333333333, R
504356, 1400.9888888888888, R
504676, 1401.8777777777777, R
505002, 1402.7833333333333, R
505315, 1403.6527777777778, R
505632, 1404.5333333333333, R
505945, 1405.4027777777778, R
506249, 1406.2472222222223, R
506564, 1407.1222222222223, R
506873, 1407.9805555555556, R
507099, 1408.6083333333333, A
507455, 1409.5972222222222, R
507761, 1410.4472222222223, R
508075, 1411.3194444444443, R
508385, 1412.1805555555557, R
508606, 1412.7944444444445, A
508948, 1413.7444444444445, R
509255, 1414.5972222222222, R
509558, 1415.4388888888889, R
509869, 1416.3027777777777, R
510092, 1416.9222222222222, A
510435, 1417.875, R
510741, 1418.725, R
511053, 1419.5916666666667, R
511359, 1420.4416666666666, R
511659, 1421.275, R
511964, 1422.1222222222223, R
512264, 1422.9555555555555, R
512486, 1423.5722222222223, A
512843, 1424.5638888888889, R
513150, 1425.4166666666667, R
513459, 1426.275, R
513687, 1426.9083333333333, A
514036, 1427.8777777777777, R
514351, 1428.7527777777777, R
514658, 1429.6055555555556, R
514888, 1430.2444444444445, A
515240, 1431.2222222222222, R
515557, 1432.1027777777779, R
515873, 1432.9805555555556, R
516182, 1433.838888888889, R
516488, 1434.6888888888889, R
516804, 1435.5666666666666, R
517109, 1436.4138888888888, R
517409, 1437.2472222222223, R
517720, 1438.111111111111, R
518026, 1438.9611111111112, R
518331, 1439.8083333333334, R
518649, 1440.6916666666666, R
518961, 1441.5583333333334, R
519269, 1442.4138888888888, R
519585, 1443.2916666666667, R
519899, 1444.1638888888888, R
520211, 1445.0305555555556, R
520521, 1445.8916666666667, R
520831, 1446.7527777777777, R
521142, 1447.6166666666666, R
521458, 1448.4944444444445, R
521778, 1449.3833333333334, R
522089, 1450.2472222222223, R
522402, 1451.1166666666666, R
522726, 1452.0166666666667, R
523040, 1452.888888888889, R
523344, 1453.7333333333333, R
523655, 1454.5972222222222, R
523967, 1455.463888888889, R
524275, 1456.3194444444443, R
524583, 1457.175, R
524891, 1458.0305555555556, R
525201, 1458.8916666666667, R
525509, 1459.7472222222223, R
525817, 1460.6027777777779, R
526121, 1461.4472222222223, R
526428, 1462.3, R
526738, 1463.161111111111, R
527044, 1464.0111111111112, R
527358, 1464.8833333333334, R
527671, 1465.7527777777777, R
527973, 1466.5916666666667, R
528278, 1467.4388888888889, R
528587, 1468.2972222222222, R
528889, 1469.1361111111112, R
529191, 1469.975, R
529486, 1470.7944444444445, R
529793, 1471.6472222222221, R
530095, 1472.486111111111, R
530392, 1473.3111111111111, R
530702, 1474.1722222222222, R
531007, 1475.0194444444444, R
531302, 1475.838888888889, R
531614, 1476.7055555555555, R
531798, 1477.2166666666667, V
532206, 1478.35, R
532513, 1479.2027777777778, R
532813, 1480.036111111111, R
533110, 1480.861111111111, R
533408, 1481.6888888888889, R
533711, 1482.5305555555556, R
534011, 1483.3638888888888, R
534309, 1484.1916666666666, R
534617, 1485.0472222222222, R
534925, 1485.9027777777778, R
535227, 1486.7416666666666, R
535529, 1487.5805555555555, R
535840, 1488.4444444444443, R
536147, 1489.2972222222222, R
536454, 1490.15, R
536768, 1491.0222222222221, R
537073, 1491.8694444444445, R
537376, 1492.7111111111112, R
537686, 1493.5722222222223, R
537991, 1494.4194444444445, R
538289, 1495.2472222222223, R
538600, 1496.111111111111, R
538909, 1496.9694444444444, R
539219, 1497.8305555555555, R
539536, 1498.7111111111112, R
539845, 1499.5694444444443, R
540161, 1500.4472222222223, R
540480, 1501.3333333333333, R
540791, 1502.1972222222223, R
541105, 1503.0694444444443, R
541413, 1503.925, R
541723, 1504.786111111111, R
542037, 1505.6583333333333, R
542344, 1506.5111111111112, R
542658, 1507.3833333333334, R
542975, 1508.263888888889, R
543279, 1509.1083333333333, R
543594, 1509.9833333333333, R
543905, 1510.8472222222222, R
544210, 1511.6944444444443, R
544525, 1512.5694444444443, R
544834, 1513.4277777777777, R
545138, 1514.2722222222221, R
545451, 1515.1416666666667, R
545756, 1515.9888888888888, R
546056, 1516.8222222222223, R
546370, 1517.6944444444443, R
546675, 1518.5416666666667, R
546980, 1519.388888888889, R
547289, 1520.2472222222223, R
547592, 1521.088888888889, R
547895, 1521.9305555555557, R
548199, 1522.775, R
548504, 1523.6222222222223, R
548809, 1524.4694444444444, R
549109, 1525.3027777777777, R
549415, 1526.1527777777778, R
549724, 1527.0111111111112, R
549942, 1527.6166666666666, A
550261, 1528.5027777777777, R
550573, 1529.3694444444445, R
550872, 1530.2, R
551183, 1531.0638888888889, R
551489, 1531.9138888888888, R
551787, 1532.7416666666666, R
552090, 1533.5833333333333, R
552399, 1534.4416666666666, R
552704, 1535.2888888888888, R
553002, 1536.1166666666666, R
553305, 1536.9583333333333, R
553604, 1537.7888888888888, R
553906, 1538.6277777777777, R
554207, 1539.463888888889, R
554503, 1540.286111111111, R
554800, 1541.111111111111, R
555099, 1541.9416666666666, R
555392, 1542.7555555555555, R
555696, 1543.6, R
555989, 1544.4138888888888, R
556288, 1545.2444444444445, R
556592, 1546.088888888889, R
556792, 1546.6444444444444, V
557084, 1547.4555555555555, A
557461, 1548.5027777777777, R
557773, 1549.3694444444445, R
558086, 1550.2388888888888, R
558395, 1551.0972222222222, R
558699, 1551.9416666666666, R
559005, 1552.7916666666667, R
559310, 1553.638888888889, R
559607, 1554.463888888889, R
559910, 1555.3055555555557, R
560220, 1556.1666666666667, R
560515, 1556.986111111111, R
560816, 1557.8222222222223, R
561126, 1558.6833333333334, R
561430, 1559.5277777777778, R
561735, 1560.375, R
562034, 1561.2055555555555, R
562333, 1562.036111111111, R
562629, 1562.8583333333333, R
562930, 1563.6944444444443, R
563228, 1564.5222222222221, R
563520, 1565.3333333333333, R
563802, 1566.1166666666666, R
564017, 1566.713888888889, A
564334, 1567.5944444444444, R
564628, 1568.411111111111, R
564921, 1569.225, R
565220, 1570.0555555555557, R
565517, 1570.8805555555555, R
565823, 1571.7305555555556, R
566136, 1572.6, R
566438, 1573.4388888888889, R
566741, 1574.2805555555556, R
567059, 1575.1638888888888, R
567370, 1576.0277777777778, R
567669, 1576.8583333333333, R
567977, 1577.713888888889, R
568275, 1578.5416666666667, R
568576, 1579.3777777777777, R
568885, 1580.236111111111, R
569185, 1581.0694444444443, R
569490, 1581.9166666666667, R
569803, 1582.786111111111, R
570114, 1583.65, R
570432, 1584.5333333333333, R
570743, 1585.3972222222221, R
571057, 1586.2694444444444, R
571256, 1586.8222222222223, V
571669, 1587.9694444444444, R
571924, 1588.6777777777777, V
572290, 1589.6944444444443, R
572591, 1590.5305555555556, R
572903, 1591.3972222222221, R
573211, 1592.2527777777777, R
573513, 1593.0916666666667, R
573819, 1593.9416666666666, R
574124, 1594.7888888888888, R
574436, 1595.6555555555556, R
574746, 1596.5166666666667, R
575057, 1597.3805555555555, R
575365, 1598.236111111111, R
575679, 1599.1083333333333, R
575994, 1599.9833333333333, R
576304, 1600.8444444444444, R
576612, 1601.7, R
576919, 1602.5527777777777, R
577228, 1603.411111111111, R
577538, 1604.2722222222221, R
577849, 1605.1361111111112, R
578163, 1606.0083333333334, R
578468, 1606.8555555555556, R
578781, 1607.725, R
579089, 1608.5805555555555, R
579230, 1608.9722222222222, ~
579395, 1609.4305555555557, R
579699, 1610.275, R
580008, 1611.1333333333334, R
580307, 1611.963888888889, R
580607, 1612.7972222222222, R
580912, 1613.6444444444444, R
581200, 1614.4444444444443, R
581496, 1615.2666666666667, R
581795, 1616.0972222222222, R
582079, 1616.8861111111112, R
582310, 1617.5277777777778, A
582623, 1618.3972222222221, R
582921, 1619.225, R
583207, 1620.0194444444444, R
583494, 1620.8166666666666, R
583781, 1621.6138888888888, R
584015, 1622.263888888889, A
584323, 1623.1194444444445, R
584605, 1623.9027777777778, R
584888, 1624.6888888888889, R
585083, 1625.2305555555556, ~
585164, 1625.4555555555555, R
585422, 1626.1722222222222, R
585691, 1626.9194444444445, R
585952, 1627.6444444444444, R
586211, 1628.3638888888888, R
586471, 1629.0861111111112, R
586736, 1629.8222222222223, R
586990, 1630.5277777777778, R
587244, 1631.2333333333333, R
587501, 1631.9472222222223, R
587762, 1632.6722222222222, R
588009, 1633.3583333333333, R
588259, 1634.0527777777777, R
588504, 1634.7333333333333, R
588576, 1634.9333333333334, ~
588753, 1635.425, R
588996, 1636.1, R
589240, 1636.7777777777778, R
589485, 1637.4583333333333, R
589727, 1638.1305555555555, R
589980, 1638.8333333333333, R
590209, 1639.4694444444444, R
590449, 1640.1361111111112, R
590575, 1640.486111111111, ~
590695, 1640.8194444444443, R
590938, 1641.4944444444445, R
591180, 1642.1666666666667, R
591417, 1642.825, R
591664, 1643.5111111111112, R
591910, 1644.1944444444443, R
592155, 1644.875, R
592400, 1645.5555555555557, R
592648, 1646.2444444444445, R
592894, 1646.9277777777777, R
593134, 1647.5944444444444, R
593379, 1648.275, R
593628, 1648.9666666666667, R
593869, 1649.6361111111112, R
594109, 1650.3027777777777, R
594350, 1650.9722222222222, R
594593, 1651.6472222222221, R
594833, 1652.3138888888889, R
595074, 1652.9833333333333, R
595321, 1653.6694444444445, R
595566, 1654.35, R
595808, 1655.0222222222221, R
596051, 1655.6972222222223, R
596297, 1656.3805555555555, R
596543, 1657.0638888888889, R
596787, 1657.7416666666666, R
597031, 1658.4194444444445, R
597273, 1659.0916666666667, R
597515, 1659.763888888889, R
597757, 1660.4361111111111, R
598001, 1661.1138888888888, R
598243, 1661.786111111111, R
598489, 1662.4694444444444, R
598735, 1663.1527777777778, R
598979, 1663.8305555555555, R
599221, 1664.5027777777777, R
599410, 1665.0277777777778, A
599689, 1665.8027777777777, R
599940, 1666.5, R
600182, 1667.1722222222222, R
600435, 1667.875, R
600681, 1668.5583333333334, R
600925, 1669.236111111111, R
601173, 1669.925, R
601426, 1670.6277777777777, R
601670, 1671.3055555555557, R
601917, 1671.9916666666666, R
602166, 1672.6833333333334, R
602424, 1673.4, R
602665, 1674.0694444444443, R
602914, 1674.7611111111112, R
603161, 1675.4472222222223, R
603409, 1676.1361111111112, R
603657, 1676.825, R
603910, 1677.5277777777778, R
604163, 1678.2305555555556, R
604417, 1678.9361111111111, R
604666, 1679.6277777777777, R
604920, 1680.3333333333333, R
605173, 1681.036111111111, R
605431, 1681.7527777777777, R
605683, 1682.4527777777778, R
605935, 1683.1527777777778, R
606182, 1683.838888888889, R
606437, 1684.5472222222222, R
606685, 1685.236111111111, R
606931, 1685.9194444444445, R
607186, 1686.6277777777777, R
607442, 1687.338888888889, R
607693, 1688.036111111111, R
607943, 1688.7305555555556, R
608203, 1689.4527777777778, R
608459, 1690.1638888888888, R
608713, 1690.8694444444445, R
608964, 1691.5666666666666, R
609224, 1692.2888888888888, R
609473, 1692.9805555555556, R
609727, 1693.6861111111111, R
609980, 1694.388888888889, R
610237, 1695.1027777777779, R
610487, 1695.7972222222222, R
610743, 1696.5083333333334, R
610994, 1697.2055555555555, R
611252, 1697.9222222222222, R
611506, 1698.6277777777777, R
611761, 1699.3361111111112, R
612009, 1700.025, R
612207, 1700.575, A
612626, 1701.7388888888888, R
612891, 1702.475, R
613155, 1703.2083333333333, R
613414, 1703.9277777777777, R
613669, 1704.6361111111112, R
613920, 1705.3333333333333, R
614178, 1706.05, R
614432, 1706.7555555555555, R
614682, 1707.45, R
614932, 1708.1444444444444, R
615123, 1708.675, A
615398, 1709.4388888888889, R
615650, 1710.138888888889, R
615906, 1710.85, R
616162, 1711.5611111111111, R
616356, 1712.1, A
616642, 1712.8944444444444, R
616898, 1713.6055555555556, R
617156, 1714.3222222222223, R
617412, 1715.0333333333333, R
617669, 1715.7472222222223, R
617922, 1716.45, R
618176, 1717.1555555555556, R
618429, 1717.8583333333333, R
618685, 1718.5694444444443, R
618937, 1719.2694444444444, R
619197, 1719.9916666666666, R
619449, 1720.6916666666666, R
619699, 1721.3861111111112, R
619946, 1722.0722222222223, R
620205, 1722.7916666666667, R
620454, 1723.4833333333333, R
620705, 1724.1805555555557, R
620953, 1724.8694444444445, R
621209, 1725.5805555555555, R
621458, 1726.2722222222221, R
621591, 1726.6416666666667, ~
621708, 1726.9666666666667, R
621965, 1727.6805555555557, R
622066, 1727.9611111111112, ~
622219, 1728.3861111111112, R
622462, 1729.0611111111111, R
622709, 1729.7472222222223, R
622956, 1730.4333333333334, R
623206, 1731.1277777777777, R
623451, 1731.8083333333334, R
623700, 1732.5, R
623946, 1733.1833333333334, R
624132, 1733.7, A
624416, 1734.4888888888888, R
624673, 1735.2027777777778, R
624926, 1735.9055555555556, R
625184, 1736.6222222222223, R
625438, 1737.3277777777778, R
625692, 1738.0333333333333, R
625947, 1738.7416666666666, R
626207, 1739.463888888889, R
626466, 1740.1833333333334, R
626714, 1740.8722222222223, R
626972, 1741.588888888889, R
627225, 1742.2916666666667, R
627413, 1742.8138888888889, A
627591, 1743.3083333333334, A
627847, 1744.0194444444444, R
628108, 1744.7444444444445, R
628356, 1745.4333333333334, R
628607, 1746.1305555555555, R
628866, 1746.85, R
629121, 1747.5583333333334, R
629374, 1748.2611111111112, R
629620, 1748.9444444444443, R
629875, 1749.6527777777778, R
630121, 1750.3361111111112, R
630372, 1751.0333333333333, R
630626, 1751.7388888888888, R
630884, 1752.4555555555555, R
631132, 1753.1444444444444, R
631386, 1753.85, R
631636, 1754.5444444444445, R
631893, 1755.2583333333334, R
632147, 1755.963888888889, R
632403, 1756.675, R
632651, 1757.3638888888888, R
632908, 1758.0777777777778, R
633163, 1758.786111111111, R
633418, 1759.4944444444445, R
633671, 1760.1972222222223, R
633929, 1760.9138888888888, R
634185, 1761.625, R
634434, 1762.3166666666666, R
634696, 1763.0444444444445, R
634956, 1763.7666666666667, R
635216, 1764.4888888888888, R
635470, 1765.1944444444443, R
635731, 1765.9194444444445, R
635991, 1766.6416666666667, R
636247, 1767.3527777777779, R
636508, 1768.0777777777778, R
636775, 1768.8194444444443, R
637030, 1769.5277777777778, R
637288, 1770.2444444444445, R
637480, 1770.7777777777778, A
637904, 1771.9555555555555, R
638173, 1772.7027777777778, R
638430, 1773.4166666666667, R
638686, 1774.1277777777777, R
638941, 1774.8361111111112, R
639199, 1775.5527777777777, R
639394, 1776.0944444444444, A
639675, 1776.875, R
639932, 1777.588888888889, R
640186, 1778.2944444444445, R
640438, 1778.9944444444445, R
640633, 1779.536111111111, A
640915, 1780.3194444444443, R
641172, 1781.0333333333333, R
641417, 1781.713888888889, R
641675, 1782.4305555555557, R
641928, 1783.1333333333334, R
642176, 1783.8222222222223, R
642432, 1784.5333333333333, R
642691, 1785.2527777777777, R
642940, 1785.9444444444443, R
643193, 1786.6472222222221, R
643450, 1787.361111111111, R
643714, 1788.0944444444444, R
643968, 1788.8, R
644225, 1789.513888888889, R
644479, 1790.2194444444444, R
644734, 1790.9277777777777, R
644988, 1791.6333333333334, R
645250, 1792.361111111111, R
645510, 1793.0833333333333, R
645768, 1793.8, R
646026, 1794.5166666666667, R
646250, 1795.138888888889, A
646536, 1795.9333333333334, R
646798, 1796.661111111111, R
647064, 1797.4, R
647316, 1798.1, R
647517, 1798.6583333333333, A
647802, 1799.45, R
648068, 1800.1888888888889, R
648330, 1800.9166666666667, R
648600, 1801.6666666666667, R
648792, 1802.2, A
649226, 1803.4055555555556, R
649429, 1803.9694444444444, A
649742, 1804.838888888889, R
