32, 0.08888888888888889, +
309, 0.8583333333333333, N
503, 1.3972222222222221, V
977, 2.713888888888889, N
1315, 3.6527777777777777, N
1651, 4.586111111111111, N
1971, 5.475, N
2294, 6.372222222222222, N
2488, 6.911111111111111, V
2956, 8.21111111111111, N
3296, 9.155555555555555, N
3613, 10.036111111111111, N
3923, 10.897222222222222, N
4257, 11.825, N
4448, 12.355555555555556, V
4906, 13.627777777777778, N
5239, 14.552777777777777, N
5552, 15.422222222222222, N
5882, 16.33888888888889, N
6210, 17.25, N
6521, 18.113888888888887, N
6864, 19.066666666666666, N
7200, 20.0, N
7512, 20.866666666666667, N
7610, 21.13888888888889, +
7709, 21.413888888888888, V
8178, 22.716666666666665, N
8377, 23.269444444444446, V
8860, 24.61111111111111, N
9052, 25.144444444444446, V
9531, 26.475, N
9736, 27.044444444444444, V
10194, 28.316666666666666, N
10421, 28.947222222222223, V
10867, 30.18611111111111, N
11065, 30.73611111111111, V
11305, 31.40277777777778, +
11545, 32.06944444444444, N
11863, 32.952777777777776, N
12186, 33.85, N
12502, 34.727777777777774, N
12804, 35.56666666666667, N
12901, 35.83611111111111, +
12999, 36.108333333333334, V
13462, 37.394444444444446, N
13657, 37.93611111111111, V
14120, 39.22222222222222, N
14325, 39.791666666666664, V
14788, 41.077777777777776, N
14981, 41.61388888888889, V
15216, 42.266666666666666, +
15451, 42.919444444444444, N
15768, 43.8, N
16080, 44.666666666666664, N
16405, 45.56944444444444, N
16720, 46.44444444444444, N
16908, 46.96666666666667, V
17391, 48.30833333333333, N
17722, 49.227777777777774, N
17913, 49.75833333333333, V
18388, 51.077777777777776, N
18726, 52.016666666666666, N
18921, 52.55833333333333, V
19403, 53.897222222222226, N
19616, 54.48888888888889, V
20104, 55.84444444444444, N
20437, 56.769444444444446, N
20532, 57.03333333333333, +
20628, 57.3, V
21102, 58.61666666666667, N
21296, 59.15555555555556, V
21763, 60.452777777777776, N
21970, 61.02777777777778, V
22190, 61.638888888888886, +
22411, 62.25277777777778, N
22744, 63.17777777777778, N
23062, 64.06111111111112, N
23381, 64.94722222222222, N
23722, 65.89444444444445, N
24054, 66.81666666666666, N
24406, 67.79444444444445, N
24747, 68.74166666666666, N
25070, 69.63888888888889, N
25263, 70.175, V
25756, 71.54444444444445, N
26072, 72.42222222222222, N
26402, 73.33888888888889, N
26729, 74.24722222222222, N
27047, 75.13055555555556, N
27366, 76.01666666666667, N
27695, 76.93055555555556, N
27883, 77.45277777777778, V
28371, 78.80833333333334, N
28718, 79.77222222222223, N
29055, 80.70833333333333, N
29376, 81.6, N
29704, 82.5111111111111, N
29812, 82.81111111111112, +
29910, 83.08333333333333, V
30386, 84.40555555555555, N
30575, 84.93055555555556, V
31066, 86.29444444444445, N
31262, 86.83888888888889, V
31494, 87.48333333333333, +
31727, 88.13055555555556, N
32063, 89.06388888888888, N
32375, 89.93055555555556, N
32697, 90.825, N
33025, 91.73611111111111, N
33344, 92.62222222222222, N
33667, 93.51944444444445, N
34001, 94.44722222222222, N
34329, 95.35833333333333, N
34657, 96.26944444444445, N
34995, 97.20833333333333, N
35338, 98.16111111111111, N
35666, 99.07222222222222, N
36015, 100.04166666666667, N
36354, 100.98333333333333, N
36684, 101.9, N
37028, 102.85555555555555, N
37356, 103.76666666666667, N
37681, 104.66944444444445, N
38027, 105.63055555555556, N
38353, 106.53611111111111, N
38675, 107.43055555555556, N
39015, 108.375, N
39340, 109.27777777777777, N
39658, 110.16111111111111, N
39984, 111.06666666666666, N
40300, 111.94444444444444, N
40627, 112.85277777777777, N
40952, 113.75555555555556, N
41278, 114.66111111111111, N
41608, 115.57777777777778, N
41936, 116.4888888888889, N
42126, 117.01666666666667, V
42595, 118.31944444444444, N
42927, 119.24166666666666, N
43249, 120.1361111111111, N
43562, 121.00555555555556, N
43881, 121.89166666666667, N
44206, 122.79444444444445, N
44517, 123.65833333333333, N
44834, 124.53888888888889, N
45029, 125.08055555555555, V
45492, 126.36666666666666, N
45832, 127.31111111111112, N
46160, 128.22222222222223, N
46481, 129.11388888888888, N
46814, 130.0388888888889, N
47132, 130.92222222222222, N
47228, 131.1888888888889, +
47325, 131.45833333333334, V
47795, 132.76388888888889, N
47991, 133.30833333333334, V
48463, 134.61944444444444, N
48699, 135.275, V
48929, 135.9138888888889, +
49148, 136.5222222222222, N
49490, 137.47222222222223, N
49807, 138.3527777777778, N
50003, 138.8972222222222, V
50468, 140.1888888888889, N
50795, 141.09722222222223, N
50985, 141.625, V
51460, 142.94444444444446, N
51788, 143.85555555555555, N
52115, 144.76388888888889, N
52434, 145.65, N
52747, 146.51944444444445, N
52941, 147.05833333333334, V
53407, 148.3527777777778, N
53752, 149.3111111111111, N
54079, 150.21944444444443, N
54395, 151.09722222222223, N
54726, 152.01666666666668, N
55047, 152.90833333333333, N
55366, 153.79444444444445, N
55698, 154.71666666666667, N
56019, 155.60833333333332, N
56337, 156.49166666666667, N
56672, 157.42222222222222, N
56986, 158.29444444444445, N
57173, 158.8138888888889, V
57652, 160.14444444444445, N
57971, 161.03055555555557, N
58156, 161.54444444444445, V
58624, 162.84444444444443, N
58943, 163.73055555555555, N
59136, 164.26666666666668, V
59591, 165.53055555555557, N
59790, 166.08333333333334, V
60257, 167.38055555555556, N
60570, 168.25, N
60753, 168.75833333333333, V
61208, 170.0222222222222, N
61517, 170.88055555555556, N
61845, 171.79166666666666, N
62173, 172.70277777777778, N
62492, 173.5888888888889, N
62590, 173.86111111111111, +
62688, 174.13333333333333, V
63194, 175.5388888888889, N
63519, 176.44166666666666, N
63716, 176.98888888888888, V
64213, 178.36944444444444, N
64568, 179.35555555555555, N
64761, 179.89166666666668, V
65249, 181.24722222222223, N
65586, 182.18333333333334, N
65776, 182.7111111111111, V
66252, 184.03333333333333, N
66586, 184.9611111111111, N
66782, 185.50555555555556, V
67022, 186.17222222222222, +
67262, 186.8388888888889, N
67458, 187.38333333333333, V
67935, 188.70833333333334, N
68265, 189.625, N
68360, 189.88888888888889, +
68455, 190.15277777777777, V
68915, 191.43055555555554, N
69119, 191.99722222222223, V
69583, 193.2861111111111, N
69787, 193.8527777777778, V
70250, 195.13888888888889, N
70478, 195.7722222222222, V
70931, 197.03055555555557, N
71122, 197.5611111111111, V
71598, 198.88333333333333, N
71799, 199.44166666666666, V
72033, 200.09166666666667, +
72267, 200.74166666666667, N
72605, 201.68055555555554, N
72928, 202.57777777777778, N
73250, 203.47222222222223, N
73594, 204.42777777777778, N
73923, 205.34166666666667, N
74110, 205.86111111111111, V
74595, 207.20833333333334, N
74799, 207.775, V
75281, 209.11388888888888, N
75613, 210.0361111111111, N
75932, 210.92222222222222, N
76031, 211.19722222222222, +
76131, 211.475, V
76612, 212.8111111111111, N
76807, 213.3527777777778, V
77287, 214.6861111111111, N
77484, 215.23333333333332, V
77720, 215.88888888888889, +
77956, 216.54444444444445, N
78292, 217.4777777777778, N
78606, 218.35, N
78941, 219.28055555555557, N
79275, 220.20833333333334, N
79590, 221.08333333333334, N
79924, 222.01111111111112, N
80263, 222.95277777777778, N
80601, 223.89166666666668, N
80940, 224.83333333333334, N
81286, 225.79444444444445, N
81634, 226.76111111111112, N
81823, 227.2861111111111, V
82298, 228.60555555555555, N
82641, 229.55833333333334, N
82960, 230.44444444444446, N
83153, 230.98055555555555, V
83630, 232.30555555555554, N
83825, 232.84722222222223, V
84305, 234.18055555555554, N
84634, 235.09444444444443, N
84939, 235.94166666666666, N
85137, 236.49166666666667, V
85603, 237.7861111111111, N
85700, 238.05555555555554, +
85798, 238.32777777777778, V
86272, 239.64444444444445, N
86587, 240.51944444444445, N
86783, 241.0638888888889, V
87253, 242.36944444444444, N
87572, 243.25555555555556, N
87769, 243.80277777777778, V
88238, 245.10555555555555, N
88573, 246.0361111111111, N
88767, 246.575, V
89003, 247.23055555555555, +
89240, 247.88888888888889, N
89502, 248.61666666666667, V
89948, 249.85555555555555, N
90265, 250.73611111111111, N
90458, 251.2722222222222, V
90936, 252.6, N
91284, 253.56666666666666, N
91606, 254.4611111111111, N
91918, 255.32777777777778, N
92260, 256.27777777777777, N
92450, 256.80555555555554, V
92919, 258.10833333333335, N
93263, 259.06388888888887, N
93592, 259.97777777777776, N
93919, 260.8861111111111, N
94240, 261.77777777777777, N
94430, 262.30555555555554, V
94908, 263.6333333333333, N
95245, 264.56944444444446, N
95566, 265.4611111111111, N
95881, 266.3361111111111, N
96205, 267.2361111111111, N
96400, 267.77777777777777, V
96878, 269.10555555555555, N
97214, 270.0388888888889, N
97551, 270.975, N
97872, 271.8666666666667, N
98063, 272.39722222222224, V
98533, 273.7027777777778, N
98724, 274.23333333333335, V
99201, 275.55833333333334, N
99531, 276.475, N
99846, 277.35, N
100037, 277.88055555555553, V
100511, 279.1972222222222, N
100832, 280.0888888888889, N
101151, 280.975, N
101247, 281.2416666666667, +
101343, 281.5083333333333, V
101812, 282.81111111111113, N
102010, 283.3611111111111, V
102471, 284.64166666666665, N
102684, 285.23333333333335, V
102922, 285.89444444444445, +
103150, 286.52777777777777, N
103468, 287.4111111111111, N
103659, 287.94166666666666, V
104112, 289.2, N
104426, 290.0722222222222, N
104621, 290.6138888888889, V
105068, 291.85555555555555, N
105383, 292.73055555555555, N
105494, 293.0388888888889, +
105595, 293.31944444444446, V
106033, 294.5361111111111, N
106221, 295.05833333333334, V
106700, 296.3888888888889, N
106894, 296.9277777777778, V
107363, 298.23055555555555, N
107575, 298.81944444444446, V
107806, 299.4611111111111, +
108027, 300.075, N
108362, 301.00555555555553, N
108458, 301.27222222222224, +
108554, 301.5388888888889, V
109016, 302.8222222222222, N
109340, 303.72222222222223, N
109531, 304.2527777777778, V
109997, 305.5472222222222, N
110317, 306.43611111111113, N
110506, 306.9611111111111, V
110974, 308.2611111111111, N
111300, 309.1666666666667, N
111488, 309.68888888888887, V
111954, 310.98333333333335, N
112279, 311.8861111111111, N
112471, 312.4194444444444, V
112724, 313.1222222222222, +
112937, 313.7138888888889, N
113127, 314.2416666666667, V
113599, 315.5527777777778, N
113908, 316.4111111111111, N
114210, 317.25, N
114525, 318.125, N
114829, 318.96944444444443, N
115148, 319.85555555555555, N
115477, 320.76944444444445, N
115788, 321.6333333333333, N
115976, 322.15555555555557, V
116458, 323.49444444444447, N
116654, 324.0388888888889, V
117116, 325.3222222222222, N
117441, 326.225, N
117751, 327.0861111111111, N
117848, 327.35555555555555, +
117946, 327.6277777777778, V
118412, 328.9222222222222, N
118729, 329.8027777777778, N
118930, 330.3611111111111, V
119391, 331.64166666666665, N
119706, 332.51666666666665, N
119899, 333.0527777777778, V
120354, 334.31666666666666, N
120674, 335.2055555555556, N
120867, 335.7416666666667, V
121310, 336.97222222222223, N
121637, 337.88055555555553, N
121825, 338.40277777777777, V
122267, 339.63055555555553, N
122584, 340.5111111111111, N
122773, 341.0361111111111, V
123001, 341.6694444444444, +
123230, 342.30555555555554, N
123557, 343.2138888888889, N
123876, 344.1, N
124190, 344.97222222222223, N
124382, 345.50555555555553, V
124837, 346.76944444444445, N
125033, 347.31388888888887, V
125484, 348.56666666666666, N
125804, 349.4555555555556, N
126112, 350.31111111111113, N
126422, 351.1722222222222, N
126739, 352.0527777777778, N
127047, 352.90833333333336, N
127363, 353.7861111111111, N
127683, 354.675, N
127991, 355.53055555555557, N
128309, 356.4138888888889, N
128644, 357.34444444444443, N
128957, 358.2138888888889, N
129275, 359.09722222222223, N
129608, 360.02222222222224, N
129921, 360.89166666666665, N
130106, 361.40555555555557, V
130570, 362.69444444444446, N
130763, 363.23055555555555, V
131232, 364.53333333333336, N
131558, 365.43888888888887, N
131865, 366.2916666666667, N
132068, 366.85555555555555, V
132529, 368.1361111111111, N
132625, 368.40277777777777, +
132722, 368.6722222222222, V
133185, 369.9583333333333, N
133499, 370.8305555555556, N
133688, 371.35555555555555, V
134147, 372.63055555555553, N
134462, 373.50555555555553, N
134647, 374.01944444444445, V
135108, 375.3, N
135423, 376.175, N
135610, 376.69444444444446, V
136068, 377.96666666666664, N
136387, 378.85277777777776, N
136583, 379.39722222222224, V
137045, 380.68055555555554, N
137362, 381.56111111111113, N
137560, 382.1111111111111, V
138026, 383.40555555555557, N
138334, 384.2611111111111, N
138521, 384.78055555555557, V
138747, 385.40833333333336, +
138974, 386.0388888888889, N
139294, 386.9277777777778, N
139609, 387.8027777777778, N
139930, 388.69444444444446, N
140264, 389.6222222222222, N
140587, 390.51944444444445, N
140915, 391.43055555555554, N
141240, 392.3333333333333, N
141563, 393.23055555555555, N
141898, 394.1611111111111, N
142095, 394.7083333333333, V
142564, 396.0111111111111, N
142910, 396.97222222222223, N
143230, 397.8611111111111, N
143536, 398.7111111111111, N
143864, 399.6222222222222, N
144176, 400.4888888888889, N
144495, 401.375, N
144823, 402.2861111111111, N
145135, 403.15277777777777, N
145458, 404.05, N
145791, 404.975, N
146108, 405.85555555555555, N
146424, 406.73333333333335, N
146753, 407.64722222222224, N
147075, 408.5416666666667, N
147402, 409.45, N
147724, 410.34444444444443, N
148041, 411.225, N
148366, 412.1277777777778, N
148687, 413.01944444444445, N
148997, 413.88055555555553, N
149317, 414.76944444444445, N
149645, 415.68055555555554, N
149966, 416.5722222222222, N
150279, 417.44166666666666, N
150604, 418.34444444444443, N
150932, 419.25555555555553, N
151234, 420.09444444444443, N
151547, 420.9638888888889, N
151738, 421.49444444444447, V
152195, 422.7638888888889, N
152532, 423.7, N
152858, 424.60555555555555, N
153166, 425.4611111111111, N
153491, 426.3638888888889, N
153689, 426.9138888888889, V
154154, 428.2055555555556, N
154490, 429.1388888888889, N
154802, 430.00555555555553, N
155124, 430.9, N
155456, 431.8222222222222, N
155768, 432.68888888888887, N
156099, 433.60833333333335, N
156439, 434.5527777777778, N
156760, 435.44444444444446, N
156852, 435.7, +
156944, 435.9555555555556, V
157424, 437.2888888888889, N
157751, 438.1972222222222, N
157948, 438.74444444444447, V
158425, 440.06944444444446, N
158748, 440.96666666666664, N
158948, 441.52222222222224, V
159427, 442.85277777777776, N
159744, 443.73333333333335, N
159936, 444.26666666666665, V
160393, 445.5361111111111, N
160715, 446.43055555555554, N
160904, 446.9555555555556, V
161129, 447.5805555555556, +
161355, 448.2083333333333, N
161556, 448.76666666666665, V
162016, 450.0444444444444, N
162334, 450.9277777777778, N
162638, 451.77222222222224, N
162828, 452.3, V
163305, 453.625, N
163624, 454.5111111111111, N
163950, 455.4166666666667, N
164291, 456.3638888888889, N
164610, 457.25, N
164930, 458.1388888888889, N
165265, 459.06944444444446, N
165584, 459.9555555555556, N
165774, 460.48333333333335, V
166257, 461.825, N
166450, 462.3611111111111, V
166928, 463.68888888888887, N
167267, 464.63055555555553, N
167577, 465.4916666666667, N
167675, 465.7638888888889, +
167774, 466.0388888888889, V
168243, 467.34166666666664, N
168441, 467.89166666666665, V
168914, 469.2055555555556, N
169111, 469.7527777777778, V
169346, 470.40555555555557, +
169582, 471.06111111111113, N
169916, 471.9888888888889, N
170222, 472.8388888888889, N
170539, 473.71944444444443, N
170861, 474.6138888888889, N
171052, 475.14444444444445, V
171526, 476.4611111111111, N
171864, 477.4, N
172200, 478.3333333333333, N
172517, 479.2138888888889, N
172838, 480.10555555555555, N
173035, 480.65277777777777, V
173503, 481.9527777777778, N
173853, 482.925, N
174181, 483.8361111111111, N
174496, 484.7111111111111, N
174834, 485.65, N
175151, 486.53055555555557, N
175468, 487.4111111111111, N
175805, 488.34722222222223, N
176120, 489.22222222222223, N
176442, 490.1166666666667, N
176781, 491.05833333333334, N
177107, 491.9638888888889, N
177430, 492.8611111111111, N
177764, 493.7888888888889, N
178087, 494.68611111111113, N
178403, 495.56388888888887, N
178727, 496.4638888888889, N
179052, 497.3666666666667, N
179376, 498.26666666666665, N
179696, 499.15555555555557, N
180014, 500.0388888888889, N
180335, 500.93055555555554, N
180659, 501.8305555555556, N
180975, 502.7083333333333, N
181287, 503.575, N
181612, 504.47777777777776, N
181936, 505.3777777777778, N
182251, 506.2527777777778, N
182576, 507.15555555555557, N
182899, 508.0527777777778, N
183223, 508.9527777777778, N
183551, 509.8638888888889, N
183873, 510.7583333333333, N
184191, 511.64166666666665, N
184526, 512.5722222222222, N
184847, 513.4638888888888, N
185171, 514.3638888888889, N
185504, 515.2888888888889, N
185822, 516.1722222222222, N
186145, 517.0694444444445, N
186469, 517.9694444444444, N
186784, 518.8444444444444, N
187103, 519.7305555555556, N
187437, 520.6583333333333, N
187764, 521.5666666666667, N
188077, 522.4361111111111, N
188418, 523.3833333333333, N
188753, 524.3138888888889, N
189064, 525.1777777777778, N
189393, 526.0916666666667, N
189716, 526.9888888888889, N
190035, 527.875, N
190362, 528.7833333333333, N
190680, 529.6666666666666, N
191004, 530.5666666666667, N
191333, 531.4805555555556, N
191650, 532.3611111111111, N
191968, 533.2444444444444, N
192292, 534.1444444444444, N
192616, 535.0444444444445, N
192941, 535.9472222222222, N
193266, 536.85, N
193591, 537.7527777777777, N
193907, 538.6305555555556, N
194219, 539.4972222222223, N
194530, 540.3611111111111, N
194839, 541.2194444444444, N
195154, 542.0944444444444, N
195475, 542.9861111111111, N
195783, 543.8416666666667, N
196109, 544.7472222222223, N
196309, 545.3027777777778, V
196774, 546.5944444444444, N
197114, 547.5388888888889, N
197441, 548.4472222222222, N
197756, 549.3222222222222, N
198092, 550.2555555555556, N
198278, 550.7722222222222, V
198753, 552.0916666666667, N
199102, 553.0611111111111, N
199434, 553.9833333333333, N
199757, 554.8805555555556, N
200084, 555.7888888888889, N
200273, 556.3138888888889, V
200759, 557.6638888888889, N
201102, 558.6166666666667, N
201431, 559.5305555555556, N
201755, 560.4305555555555, N
202082, 561.3388888888888, N
202268, 561.8555555555556, V
202744, 563.1777777777778, N
203087, 564.1305555555556, N
203414, 565.0388888888889, N
203723, 565.8972222222222, N
204050, 566.8055555555555, N
204367, 567.6861111111111, N
204463, 567.9527777777778, +
204559, 568.2194444444444, V
205038, 569.55, N
205360, 570.4444444444445, N
205551, 570.975, V
206045, 572.3472222222222, N
206373, 573.2583333333333, N
206562, 573.7833333333333, V
207049, 575.1361111111111, N
207383, 576.0638888888889, N
207571, 576.5861111111111, V
208043, 577.8972222222222, N
208378, 578.8277777777778, N
208572, 579.3666666666667, V
209044, 580.6777777777778, N
209378, 581.6055555555556, N
209570, 582.1388888888889, V
210043, 583.4527777777778, N
210242, 584.0055555555556, V
210719, 585.3305555555555, N
211039, 586.2194444444444, N
211236, 586.7666666666667, V
211695, 588.0416666666666, N
212027, 588.9638888888888, N
212224, 589.5111111111111, V
212686, 590.7944444444445, N
213004, 591.6777777777778, N
213190, 592.1944444444445, V
213650, 593.4722222222222, N
213845, 594.0138888888889, V
214312, 595.3111111111111, N
214621, 596.1694444444445, N
214821, 596.725, V
215270, 597.9722222222222, N
215580, 598.8333333333334, N
215773, 599.3694444444444, V
216253, 600.7027777777778, N
216592, 601.6444444444444, N
216780, 602.1666666666666, V
217020, 602.8333333333334, +
217260, 603.5, N
217593, 604.425, N
217923, 605.3416666666667, N
218244, 606.2333333333333, N
218565, 607.125, N
218889, 608.025, N
219219, 608.9416666666667, N
219536, 609.8222222222222, N
219734, 610.3722222222223, V
220210, 611.6944444444445, N
220534, 612.5944444444444, N
220726, 613.1277777777777, V
221194, 614.4277777777778, N
221387, 614.9638888888888, V
221864, 616.2888888888889, N
222184, 617.1777777777778, N
222490, 618.0277777777778, N
222811, 618.9194444444445, N
223130, 619.8055555555555, N
223443, 620.675, N
223771, 621.5861111111111, N
223959, 622.1083333333333, V
224430, 623.4166666666666, N
224779, 624.3861111111111, N
225094, 625.2611111111111, N
225405, 626.125, N
225741, 627.0583333333333, N
225930, 627.5833333333334, V
226403, 628.8972222222222, N
226754, 629.8722222222223, N
227082, 630.7833333333333, N
227408, 631.6888888888889, N
227740, 632.6111111111111, N
227927, 633.1305555555556, V
228418, 634.4944444444444, N
228763, 635.4527777777778, N
229084, 636.3444444444444, N
229395, 637.2083333333334, N
229723, 638.1194444444444, N
230053, 639.0361111111112, N
230365, 639.9027777777778, N
230696, 640.8222222222222, N
231027, 641.7416666666667, N
231340, 642.6111111111111, N
231666, 643.5166666666667, N
231991, 644.4194444444445, N
232310, 645.3055555555555, N
232646, 646.2388888888889, N
232965, 647.125, N
233282, 648.0055555555556, N
233623, 648.9527777777778, N
233936, 649.8222222222222, N
234120, 650.3333333333334, V
234596, 651.6555555555556, N
234919, 652.5527777777778, N
235110, 653.0833333333334, V
235583, 654.3972222222222, N
235908, 655.3, N
236233, 656.2027777777778, N
236556, 657.1, N
236864, 657.9555555555555, N
237181, 658.8361111111111, N
237510, 659.75, N
237837, 660.6583333333333, N
238150, 661.5277777777778, N
238484, 662.4555555555555, N
238811, 663.3638888888889, N
239137, 664.2694444444444, N
239466, 665.1833333333333, N
239791, 666.0861111111111, N
240116, 666.9888888888889, N
240457, 667.9361111111111, N
240777, 668.825, N
240873, 669.0916666666667, +
240969, 669.3583333333333, V
241458, 670.7166666666667, N
241788, 671.6333333333333, N
241981, 672.1694444444445, V
242450, 673.4722222222222, N
242776, 674.3777777777777, N
242968, 674.9111111111112, V
243207, 675.575, +
243446, 676.2388888888889, N
243764, 677.1222222222223, N
244095, 678.0416666666666, N
244414, 678.9277777777778, N
244720, 679.7777777777778, N
244915, 680.3194444444445, V
245391, 681.6416666666667, N
245717, 682.5472222222222, N
245912, 683.0888888888888, V
246385, 684.4027777777778, N
246707, 685.2972222222222, N
247029, 686.1916666666667, N
247347, 687.075, N
247665, 687.9583333333334, N
247853, 688.4805555555556, V
248320, 689.7777777777778, N
248649, 690.6916666666667, N
248842, 691.2277777777778, V
249308, 692.5222222222222, N
249647, 693.4638888888888, N
249975, 694.375, N
250283, 695.2305555555556, N
250599, 696.1083333333333, N
250923, 697.0083333333333, N
251240, 697.8888888888889, N
251556, 698.7666666666667, N
251880, 699.6666666666666, N
252204, 700.5666666666667, N
252527, 701.4638888888888, N
252842, 702.3388888888888, N
253164, 703.2333333333333, N
253478, 704.1055555555556, N
253808, 705.0222222222222, N
254135, 705.9305555555555, N
254443, 706.7861111111112, N
254775, 707.7083333333334, N
254965, 708.2361111111111, V
255432, 709.5333333333333, N
255773, 710.4805555555556, N
256090, 711.3611111111111, N
256415, 712.2638888888889, N
256747, 713.1861111111111, N
256934, 713.7055555555555, V
257411, 715.0305555555556, N
257754, 715.9833333333333, N
258069, 716.8583333333333, N
258384, 717.7333333333333, N
258697, 718.6027777777778, N
258889, 719.1361111111111, V
259358, 720.4388888888889, N
259689, 721.3583333333333, N
260010, 722.25, N
260329, 723.1361111111111, N
260658, 724.05, N
260842, 724.5611111111111, V
261322, 725.8944444444444, N
261669, 726.8583333333333, N
262001, 727.7805555555556, N
262326, 728.6833333333333, N
262664, 729.6222222222223, N
262987, 730.5194444444444, N
263177, 731.0472222222222, V
263657, 732.3805555555556, N
263983, 733.2861111111112, N
264172, 733.8111111111111, V
264658, 735.1611111111112, N
264984, 736.0666666666667, N
265173, 736.5916666666667, V
265654, 737.9277777777778, N
265852, 738.4777777777778, V
266343, 739.8416666666667, N
266668, 740.7444444444444, N
267001, 741.6694444444445, N
267339, 742.6083333333333, N
267655, 743.4861111111111, N
267843, 744.0083333333333, V
268324, 745.3444444444444, N
268520, 745.8888888888889, V
268992, 747.2, N
269324, 748.1222222222223, N
269638, 748.9944444444444, N
269831, 749.5305555555556, V
270302, 750.8388888888888, N
270497, 751.3805555555556, V
270976, 752.7111111111111, N
271315, 753.6527777777778, N
271626, 754.5166666666667, N
271951, 755.4194444444445, N
272282, 756.3388888888888, N
272603, 757.2305555555556, N
272697, 757.4916666666667, +
272792, 757.7555555555556, V
273266, 759.0722222222222, N
273597, 759.9916666666667, N
273789, 760.525, V
274261, 761.8361111111111, N
274584, 762.7333333333333, N
274774, 763.2611111111111, V
275249, 764.5805555555555, N
275579, 765.4972222222223, N
275672, 765.7555555555556, +
275765, 766.0138888888889, V
276240, 767.3333333333334, N
276441, 767.8916666666667, V
276916, 769.2111111111111, N
277111, 769.7527777777777, V
277342, 770.3944444444444, +
277574, 771.0388888888889, N
277908, 771.9666666666667, N
278217, 772.825, N
278312, 773.0888888888888, +
278407, 773.3527777777778, V
278882, 774.6722222222222, N
279213, 775.5916666666667, N
279398, 776.1055555555556, V
279877, 777.4361111111111, N
280202, 778.3388888888888, N
280396, 778.8777777777777, V
280875, 780.2083333333334, N
281199, 781.1083333333333, N
281395, 781.6527777777778, V
281862, 782.95, N
282187, 783.8527777777778, N
282282, 784.1166666666667, +
282377, 784.3805555555556, V
282839, 785.6638888888889, N
283035, 786.2083333333334, V
283498, 787.4944444444444, N
283696, 788.0444444444445, V
284164, 789.3444444444444, N
284403, 790.0083333333333, V
284631, 790.6416666666667, +
284847, 791.2416666666667, N
285191, 792.1972222222222, N
285515, 793.0972222222222, N
285839, 793.9972222222223, N
286165, 794.9027777777778, N
286350, 795.4166666666666, V
286834, 796.7611111111111, N
287179, 797.7194444444444, N
287502, 798.6166666666667, N
287823, 799.5083333333333, N
288157, 800.4361111111111, N
288487, 801.3527777777778, N
288801, 802.225, N
289128, 803.1333333333333, N
289457, 804.0472222222222, N
289784, 804.9555555555555, N
290108, 805.8555555555556, N
290427, 806.7416666666667, N
290744, 807.6222222222223, N
291077, 808.5472222222222, N
291387, 809.4083333333333, N
291700, 810.2777777777778, N
292034, 811.2055555555555, N
292349, 812.0805555555555, N
292661, 812.9472222222222, N
292991, 813.8638888888889, N
293302, 814.7277777777778, N
293625, 815.625, N
293955, 816.5416666666666, N
294140, 817.0555555555555, V
294610, 818.3611111111111, N
294953, 819.3138888888889, N
295272, 820.2, N
295597, 821.1027777777778, N
295921, 822.0027777777777, N
296239, 822.8861111111111, N
296433, 823.425, V
296919, 824.775, N
297112, 825.3111111111111, V
297594, 826.65, N
297934, 827.5944444444444, N
298251, 828.475, N
298437, 828.9916666666667, V
298924, 830.3444444444444, N
299123, 830.8972222222222, V
299596, 832.2111111111111, N
299932, 833.1444444444444, N
300255, 834.0416666666666, N
300445, 834.5694444444445, V
300923, 835.8972222222222, N
301263, 836.8416666666667, N
301452, 837.3666666666667, V
301938, 838.7166666666667, N
302131, 839.2527777777777, V
302611, 840.5861111111111, N
302938, 841.4944444444444, N
303254, 842.3722222222223, N
303572, 843.2555555555556, N
303886, 844.1277777777777, N
304198, 844.9944444444444, N
304532, 845.9222222222222, N
304857, 846.825, N
305178, 847.7166666666667, N
305525, 848.6805555555555, N
305859, 849.6083333333333, N
306180, 850.5, N
306518, 851.4388888888889, N
306844, 852.3444444444444, N
307174, 853.2611111111111, N
307502, 854.1722222222222, N
307818, 855.05, N
308013, 855.5916666666667, V
308499, 856.9416666666667, N
308822, 857.8388888888888, N
309152, 858.7555555555556, N
309483, 859.675, N
309807, 860.575, N
310124, 861.4555555555555, N
310443, 862.3416666666667, N
310768, 863.2444444444444, N
311079, 864.1083333333333, N
311391, 864.975, N
311706, 865.85, N
312019, 866.7194444444444, N
312349, 867.6361111111111, N
312664, 868.5111111111111, N
312852, 869.0333333333333, V
313328, 870.3555555555556, N
313655, 871.2638888888889, N
313846, 871.7944444444445, V
314319, 873.1083333333333, N
314639, 873.9972222222223, N
314971, 874.9194444444445, N
315299, 875.8305555555555, N
315609, 876.6916666666667, N
315936, 877.6, N
316266, 878.5166666666667, N
316574, 879.3722222222223, N
316902, 880.2833333333333, N
317231, 881.1972222222222, N
317559, 882.1083333333333, N
317881, 883.0027777777777, N
318211, 883.9194444444445, N
318401, 884.4472222222222, V
318883, 885.7861111111112, N
319221, 886.725, N
319558, 887.6611111111112, N
319876, 888.5444444444445, N
320208, 889.4666666666667, N
320401, 890.0027777777777, V
320871, 891.3083333333333, N
321220, 892.2777777777778, N
321545, 893.1805555555555, N
321863, 894.0638888888889, N
322200, 895.0, N
322520, 895.8888888888889, N
322843, 896.7861111111112, N
323181, 897.725, N
323496, 898.6, N
323683, 899.1194444444444, V
324177, 900.4916666666667, N
324372, 901.0333333333333, V
324847, 902.3527777777778, N
325178, 903.2722222222222, N
325496, 904.1555555555556, N
325692, 904.7, V
326162, 906.0055555555556, N
326491, 906.9194444444445, N
326816, 907.8222222222222, N
327016, 908.3777777777777, V
327478, 909.6611111111112, N
327810, 910.5833333333334, N
328138, 911.4944444444444, N
328458, 912.3833333333333, N
328655, 912.9305555555555, V
329130, 914.25, N
329456, 915.1555555555556, N
329786, 916.0722222222222, N
330113, 916.9805555555556, N
330443, 917.8972222222222, N
330761, 918.7805555555556, N
331095, 919.7083333333334, N
331423, 920.6194444444444, N
331735, 921.4861111111111, N
331940, 922.0555555555555, V
332412, 923.3666666666667, N
332730, 924.25, N
333045, 925.125, N
333362, 926.0055555555556, N
333682, 926.8944444444444, N
333990, 927.75, N
334311, 928.6416666666667, N
334501, 929.1694444444445, V
334976, 930.4888888888889, N
335316, 931.4333333333333, N
335652, 932.3666666666667, N
335967, 933.2416666666667, N
336305, 934.1805555555555, N
336639, 935.1083333333333, N
336957, 935.9916666666667, N
337294, 936.9277777777778, N
337621, 937.8361111111111, N
337940, 938.7222222222222, N
338280, 939.6666666666666, N
338612, 940.5888888888888, N
338941, 941.5027777777777, N
339286, 942.4611111111111, N
339612, 943.3666666666667, N
339948, 944.3, N
340280, 945.2222222222222, N
340593, 946.0916666666667, N
340689, 946.3583333333333, +
340786, 946.6277777777777, V
341262, 947.95, N
341594, 948.8722222222223, N
341794, 949.4277777777778, V
342259, 950.7194444444444, N
342594, 951.65, N
342784, 952.1777777777778, V
343245, 953.4583333333334, N
343576, 954.3777777777777, N
343766, 954.9055555555556, V
344236, 956.2111111111111, N
344571, 957.1416666666667, N
344762, 957.6722222222222, V
345236, 958.9888888888889, N
345562, 959.8944444444444, N
345753, 960.425, V
346210, 961.6944444444445, N
346526, 962.5722222222222, N
346716, 963.1, V
347186, 964.4055555555556, N
347499, 965.275, N
347593, 965.5361111111112, +
347687, 965.7972222222222, V
348153, 967.0916666666667, N
348354, 967.65, V
348820, 968.9444444444445, N
349012, 969.4777777777778, V
349242, 970.1166666666667, +
349472, 970.7555555555556, N
349805, 971.6805555555555, N
350116, 972.5444444444445, N
350424, 973.4, N
350743, 974.2861111111112, N
350938, 974.8277777777778, V
351397, 976.1027777777778, N
351729, 977.025, N
352049, 977.9138888888889, N
352366, 978.7944444444445, N
352558, 979.3277777777778, V
353031, 980.6416666666667, N
353236, 981.2111111111111, V
353705, 982.5138888888889, N
354041, 983.4472222222222, N
354355, 984.3194444444445, N
354544, 984.8444444444444, V
355015, 986.1527777777778, N
355209, 986.6916666666667, V
355672, 987.9777777777778, N
356002, 988.8944444444444, N
356314, 989.7611111111111, N
356638, 990.6611111111112, N
356962, 991.5611111111111, N
357277, 992.4361111111111, N
357613, 993.3694444444444, N
357930, 994.25, N
358119, 994.775, V
358611, 996.1416666666667, N
358817, 996.7138888888888, V
359288, 998.0222222222222, N
359625, 998.9583333333334, N
359940, 999.8333333333334, N
360266, 1000.7388888888889, N
360588, 1001.6333333333333, N
360906, 1002.5166666666667, N
361229, 1003.4138888888889, N
361561, 1004.3361111111111, N
361874, 1005.2055555555555, N
362191, 1006.0861111111111, N
362517, 1006.9916666666667, N
362835, 1007.875, N
363154, 1008.7611111111111, N
363475, 1009.6527777777778, N
363797, 1010.5472222222222, N
364121, 1011.4472222222222, N
364446, 1012.35, N
364766, 1013.2388888888889, N
365081, 1014.1138888888889, N
365409, 1015.025, N
365736, 1015.9333333333333, N
366051, 1016.8083333333333, N
366384, 1017.7333333333333, N
366576, 1018.2666666666667, V
367046, 1019.5722222222222, N
367382, 1020.5055555555556, N
367700, 1021.3888888888889, N
368009, 1022.2472222222223, N
368200, 1022.7777777777778, V
368663, 1024.0638888888889, N
368862, 1024.6166666666666, V
369332, 1025.9222222222222, N
369672, 1026.8666666666666, N
369989, 1027.7472222222223, N
370306, 1028.6277777777777, N
370641, 1029.5583333333334, N
370972, 1030.4777777777779, N
371295, 1031.375, N
371620, 1032.2777777777778, N
371950, 1033.1944444444443, N
372271, 1034.0861111111112, N
372593, 1034.9805555555556, N
372915, 1035.875, N
373231, 1036.7527777777777, N
373570, 1037.6944444444443, N
373895, 1038.5972222222222, N
374212, 1039.4777777777779, N
374561, 1040.4472222222223, N
374898, 1041.3833333333334, N
375216, 1042.2666666666667, N
375558, 1043.2166666666667, N
375889, 1044.1361111111112, N
376077, 1044.6583333333333, V
376563, 1046.0083333333334, N
376752, 1046.5333333333333, V
377236, 1047.8777777777777, N
377585, 1048.8472222222222, N
377894, 1049.7055555555555, N
378209, 1050.5805555555555, N
378527, 1051.463888888889, N
378845, 1052.3472222222222, N
379158, 1053.2166666666667, N
379478, 1054.1055555555556, N
379803, 1055.0083333333334, N
380119, 1055.8861111111112, N
380441, 1056.7805555555556, N
380760, 1057.6666666666667, N
381079, 1058.5527777777777, N
381411, 1059.475, N
381736, 1060.3777777777777, N
382061, 1061.2805555555556, N
382403, 1062.2305555555556, N
382729, 1063.1361111111112, N
382824, 1063.4, +
382920, 1063.6666666666667, V
383410, 1065.0277777777778, N
383608, 1065.5777777777778, V
384108, 1066.9666666666667, N
384310, 1067.5277777777778, V
384558, 1068.2166666666667, +
384806, 1068.9055555555556, N
385165, 1069.9027777777778, N
385504, 1070.8444444444444, N
385842, 1071.7833333333333, N
386179, 1072.7194444444444, N
386514, 1073.65, N
386859, 1074.6083333333333, N
387200, 1075.5555555555557, N
387543, 1076.5083333333334, N
387743, 1077.0638888888889, V
388238, 1078.4388888888889, N
388591, 1079.4194444444445, N
388684, 1079.6777777777777, +
388778, 1079.9388888888889, V
389274, 1081.3166666666666, N
389476, 1081.8777777777777, V
389963, 1083.2305555555556, N
390156, 1083.7666666666667, V
390402, 1084.45, +
390648, 1085.1333333333334, N
390990, 1086.0833333333333, N
391319, 1086.9972222222223, N
391507, 1087.5194444444444, V
392000, 1088.888888888889, N
392344, 1089.8444444444444, N
392674, 1090.7611111111112, N
393017, 1091.713888888889, N
393355, 1092.6527777777778, N
393686, 1093.5722222222223, N
393782, 1093.838888888889, +
393879, 1094.1083333333333, V
394365, 1095.4583333333333, N
394560, 1096.0, V
395056, 1097.3777777777777, N
395251, 1097.9194444444445, V
395492, 1098.588888888889, +
395734, 1099.2611111111112, N
396094, 1100.2611111111112, N
396424, 1101.1777777777777, N
396744, 1102.0666666666666, N
397068, 1102.9666666666667, N
397409, 1103.9138888888888, N
397734, 1104.8166666666666, N
398053, 1105.7027777777778, N
398150, 1105.9722222222222, +
398247, 1106.2416666666666, V
398732, 1107.588888888889, N
398919, 1108.1083333333333, V
399393, 1109.425, N
399592, 1109.9777777777779, V
399831, 1110.6416666666667, +
400071, 1111.3083333333334, N
400406, 1112.2388888888888, N
400599, 1112.775, V
401071, 1114.0861111111112, N
401385, 1114.9583333333333, N
401675, 1115.763888888889, N
401966, 1116.5722222222223, N
402076, 1116.8777777777777, +
402159, 1117.1083333333333, V
402513, 1118.0916666666667, N
402709, 1118.6361111111112, V
403036, 1119.5444444444445, N
403229, 1120.0805555555555, V
403383, 1120.5083333333334, +
403538, 1120.9388888888889, N
403802, 1121.6722222222222, N
404047, 1122.3527777777779, N
404236, 1122.8777777777777, V
404678, 1124.1055555555556, N
404978, 1124.9388888888889, N
405283, 1125.786111111111, N
405595, 1126.6527777777778, N
405899, 1127.4972222222223, N
406083, 1128.0083333333334, V
406561, 1129.3361111111112, N
406872, 1130.2, N
407181, 1131.0583333333334, N
407504, 1131.9555555555555, N
407598, 1132.2166666666667, +
407692, 1132.4777777777779, V
408172, 1133.8111111111111, N
408360, 1134.3333333333333, V
408829, 1135.6361111111112, N
409038, 1136.2166666666667, V
409503, 1137.5083333333334, N
409692, 1138.0333333333333, V
410160, 1139.3333333333333, N
410350, 1139.861111111111, V
410580, 1140.5, +
410811, 1141.1416666666667, N
411119, 1141.9972222222223, N
411407, 1142.7972222222222, N
411716, 1143.6555555555556, N
412020, 1144.5, N
412117, 1144.7694444444444, +
412215, 1145.0416666666667, V
412666, 1146.2944444444445, N
412856, 1146.8222222222223, V
413313, 1148.0916666666667, N
413514, 1148.65, V
413733, 1149.2583333333334, +
413952, 1149.8666666666666, N
414262, 1150.7277777777779, N
414558, 1151.55, N
414851, 1152.3638888888888, N
414960, 1152.6666666666667, +
415042, 1152.8944444444444, V
415457, 1154.0472222222222, N
415645, 1154.5694444444443, V
416067, 1155.7416666666666, N
416283, 1156.3416666666667, V
416667, 1157.4083333333333, N
416860, 1157.9444444444443, V
417277, 1159.1027777777779, N
417487, 1159.6861111111111, V
417674, 1160.2055555555555, +
417862, 1160.7277777777779, N
418133, 1161.4805555555556, N
418404, 1162.2333333333333, N
418685, 1163.013888888889, N
418976, 1163.8222222222223, N
419163, 1164.3416666666667, V
419609, 1165.5805555555555, N
419935, 1166.486111111111, N
420245, 1167.3472222222222, N
420564, 1168.2333333333333, N
420876, 1169.1, N
420971, 1169.3638888888888, +
421066, 1169.6277777777777, V
421523, 1170.8972222222221, N
421844, 1171.7888888888888, N
422031, 1172.3083333333334, V
422481, 1173.5583333333334, N
422795, 1174.4305555555557, N
422978, 1174.9388888888889, V
423419, 1176.1638888888888, N
423728, 1177.0222222222221, N
423917, 1177.5472222222222, V
424345, 1178.736111111111, N
424648, 1179.5777777777778, N
424745, 1179.8472222222222, +
424842, 1180.1166666666666, V
425272, 1181.3111111111111, N
425470, 1181.861111111111, V
425896, 1183.0444444444445, N
426098, 1183.6055555555556, V
426527, 1184.7972222222222, N
426721, 1185.3361111111112, V
427142, 1186.5055555555555, N
427330, 1187.0277777777778, V
427541, 1187.6138888888888, +
427753, 1188.2027777777778, N
428050, 1189.0277777777778, N
428339, 1189.8305555555555, N
428626, 1190.6277777777777, N
428817, 1191.1583333333333, V
429248, 1192.3555555555556, N
429444, 1192.9, V
429863, 1194.0638888888889, N
430165, 1194.9027777777778, N
430460, 1195.7222222222222, N
430761, 1196.5583333333334, N
430949, 1197.0805555555555, V
431380, 1198.2777777777778, N
431676, 1199.1, N
431976, 1199.9333333333334, N
432271, 1200.7527777777777, N
432457, 1201.2694444444444, V
432877, 1202.4361111111111, N
433065, 1202.9583333333333, V
433474, 1204.0944444444444, N
433763, 1204.8972222222221, N
433950, 1205.4166666666667, V
434334, 1206.4833333333333, N
434464, 1206.8444444444444, ~
434620, 1207.2777777777778, N
434890, 1208.0277777777778, N
435079, 1208.5527777777777, V
435458, 1209.6055555555556, N
435735, 1210.375, N
436011, 1211.1416666666667, N
436205, 1211.6805555555557, V
436553, 1212.6472222222221, N
436821, 1213.3916666666667, N
437019, 1213.9416666666666, V
437375, 1214.9305555555557, N
437597, 1215.5472222222222, V
437853, 1216.2583333333334, N
438133, 1217.036111111111, N
438400, 1217.7777777777778, N
438493, 1218.036111111111, +
438586, 1218.2944444444445, V
438990, 1219.4166666666667, N
439286, 1220.2388888888888, N
439472, 1220.7555555555555, V
439933, 1222.036111111111, N
440256, 1222.9333333333334, N
440442, 1223.45, V
440729, 1224.2472222222223, ~
440952, 1224.8666666666666, N
441306, 1225.85, N
441485, 1226.3472222222222, V
441746, 1227.0722222222223, +
442007, 1227.7972222222222, N
442355, 1228.763888888889, N
442700, 1229.7222222222222, N
443033, 1230.6472222222221, N
443367, 1231.575, N
443465, 1231.8472222222222, +
443564, 1232.1222222222223, V
444062, 1233.5055555555555, N
444256, 1234.0444444444445, V
444743, 1235.3972222222221, N
444937, 1235.9361111111111, V
445424, 1237.2888888888888, N
445617, 1237.825, V
445851, 1238.475, +
446086, 1239.1277777777777, N
446409, 1240.025, N
446734, 1240.9277777777777, N
447053, 1241.8138888888889, N
447365, 1242.6805555555557, N
447561, 1243.225, V
448033, 1244.536111111111, N
448367, 1245.463888888889, N
448552, 1245.9777777777779, V
449028, 1247.3, N
449221, 1247.8361111111112, V
449691, 1249.1416666666667, N
450007, 1250.0194444444444, N
450193, 1250.536111111111, V
450667, 1251.8527777777779, N
450987, 1252.7416666666666, N
451304, 1253.6222222222223, N
451402, 1253.8944444444444, +
451501, 1254.1694444444445, V
451970, 1255.4722222222222, N
452153, 1255.9805555555556, V
452622, 1257.2833333333333, N
452814, 1257.8166666666666, V
453057, 1258.4916666666666, +
453301, 1259.1694444444445, N
453628, 1260.0777777777778, N
453963, 1261.0083333333334, N
454160, 1261.5555555555557, V
454643, 1262.8972222222221, N
454976, 1263.8222222222223, N
455306, 1264.7388888888888, N
455498, 1265.2722222222221, V
455987, 1266.6305555555555, N
456180, 1267.1666666666667, V
456659, 1268.4972222222223, N
456994, 1269.4277777777777, N
457186, 1269.9611111111112, V
457665, 1271.2916666666667, N
457761, 1271.5583333333334, +
457857, 1271.825, V
458342, 1273.1722222222222, N
458682, 1274.1166666666666, N
458867, 1274.6305555555555, V
459354, 1275.9833333333333, N
459695, 1276.9305555555557, N
459886, 1277.4611111111112, V
460353, 1278.7583333333334, N
460687, 1279.6861111111111, N
460878, 1280.2166666666667, V
461346, 1281.5166666666667, N
461683, 1282.4527777777778, N
461777, 1282.713888888889, +
461872, 1282.9777777777779, V
462341, 1284.2805555555556, N
462540, 1284.8333333333333, V
462981, 1286.0583333333334, N
463169, 1286.5805555555555, V
463397, 1287.213888888889, +
463625, 1287.8472222222222, N
463937, 1288.713888888889, N
464248, 1289.5777777777778, N
464573, 1290.4805555555556, N
464914, 1291.4277777777777, N
465008, 1291.6888888888889, +
465103, 1291.9527777777778, V
465625, 1293.4027777777778, N
465823, 1293.9527777777778, V
466353, 1295.425, N
466573, 1296.036111111111, V
467065, 1297.4027777777778, N
467261, 1297.9472222222223, V
467780, 1299.388888888889, N
467963, 1299.8972222222221, V
468443, 1301.2305555555556, N
468638, 1301.7722222222221, V
469112, 1303.088888888889, N
469309, 1303.6361111111112, V
469545, 1304.2916666666667, +
469781, 1304.9472222222223, N
470108, 1305.8555555555556, N
470439, 1306.775, N
470626, 1307.2944444444445, V
471105, 1308.625, N
471296, 1309.1555555555556, V
471806, 1310.5722222222223, N
472138, 1311.4944444444445, N
472472, 1312.4222222222222, N
472803, 1313.3416666666667, N
473136, 1314.2666666666667, N
473324, 1314.7888888888888, V
473816, 1316.1555555555556, N
474159, 1317.1083333333333, N
474354, 1317.65, V
474846, 1319.0166666666667, N
475187, 1319.963888888889, N
475533, 1320.925, N
475628, 1321.1888888888889, +
475723, 1321.4527777777778, V
476197, 1322.7694444444444, N
476389, 1323.3027777777777, V
476876, 1324.6555555555556, N
477075, 1325.2083333333333, V
477316, 1325.8777777777777, +
477558, 1326.55, N
477902, 1327.5055555555555, N
478239, 1328.4416666666666, N
478335, 1328.7083333333333, +
478432, 1328.9777777777779, V
478913, 1330.3138888888889, N
479106, 1330.85, V
479598, 1332.2166666666667, N
479797, 1332.7694444444444, V
480273, 1334.0916666666667, N
480467, 1334.6305555555555, V
480957, 1335.9916666666666, N
481152, 1336.5333333333333, V
481627, 1337.8527777777779, N
481818, 1338.3833333333334, V
482291, 1339.6972222222223, N
482492, 1340.2555555555555, V
482948, 1341.5222222222221, N
483142, 1342.0611111111111, V
483365, 1342.6805555555557, +
483588, 1343.3, N
483887, 1344.1305555555555, N
484185, 1344.9583333333333, N
484464, 1345.7333333333333, N
484752, 1346.5333333333333, N
485054, 1347.3722222222223, N
485349, 1348.1916666666666, N
485643, 1349.0083333333334, N
485965, 1349.9027777777778, N
486287, 1350.7972222222222, N
486601, 1351.6694444444445, N
486937, 1352.6027777777779, N
487279, 1353.5527777777777, N
487613, 1354.4805555555556, N
487958, 1355.4388888888889, N
488310, 1356.4166666666667, N
488661, 1357.3916666666667, N
489006, 1358.35, N
489101, 1358.6138888888888, +
489197, 1358.8805555555555, V
489709, 1360.3027777777777, N
489907, 1360.8527777777779, V
490398, 1362.2166666666667, N
490588, 1362.7444444444445, V
491055, 1364.0416666666667, N
491266, 1364.6277777777777, V
491494, 1365.2611111111112, +
491722, 1365.8944444444444, N
492037, 1366.7694444444444, N
492226, 1367.2944444444445, V
492663, 1368.5083333333334, N
492979, 1369.3861111111112, N
493169, 1369.9138888888888, V
493599, 1371.1083333333333, N
493795, 1371.6527777777778, V
494243, 1372.8972222222221, N
494539, 1373.7194444444444, N
494848, 1374.5777777777778, N
495163, 1375.4527777777778, N
495484, 1376.3444444444444, N
495815, 1377.263888888889, N
495911, 1377.5305555555556, +
496008, 1377.8, V
496481, 1379.1138888888888, N
496675, 1379.6527777777778, V
497154, 1380.9833333333333, N
497349, 1381.525, V
497823, 1382.8416666666667, N
498016, 1383.3777777777777, V
498497, 1384.713888888889, N
498692, 1385.2555555555555, V
498926, 1385.9055555555556, +
499161, 1386.5583333333334, N
499488, 1387.4666666666667, N
499677, 1387.9916666666666, V
500118, 1389.2166666666667, N
500317, 1389.7694444444444, V
500748, 1390.9666666666667, N
501052, 1391.8111111111111, N
501348, 1392.6333333333334, N
501534, 1393.15, V
501967, 1394.3527777777779, N
502162, 1394.8944444444444, V
502583, 1396.0638888888889, N
502894, 1396.9277777777777, N
503082, 1397.45, V
503538, 1398.7166666666667, N
503860, 1399.611111111111, N
503955, 1399.875, +
504050, 1400.138888888889, V
504522, 1401.45, N
504716, 1401.9888888888888, V
505188, 1403.3, N
505383, 1403.8416666666667, V
505894, 1405.2611111111112, N
506090, 1405.8055555555557, V
506342, 1406.5055555555555, +
506594, 1407.2055555555555, N
506949, 1408.1916666666666, N
507146, 1408.7388888888888, V
507637, 1410.1027777777779, N
507992, 1411.088888888889, N
508181, 1411.6138888888888, V
508676, 1412.9888888888888, N
508879, 1413.5527777777777, V
509370, 1414.9166666666667, N
509713, 1415.8694444444445, N
509904, 1416.4, V
510390, 1417.75, N
510732, 1418.7, N
511062, 1419.6166666666666, N
511251, 1420.1416666666667, V
511736, 1421.4888888888888, N
511933, 1422.036111111111, V
512422, 1423.3944444444444, N
512760, 1424.3333333333333, N
513087, 1425.2416666666666, N
513286, 1425.7944444444445, V
513766, 1427.1277777777777, N
513965, 1427.6805555555557, V
514461, 1429.0583333333334, N
514792, 1429.9777777777779, N
514987, 1430.5194444444444, V
515476, 1431.8777777777777, N
515819, 1432.8305555555555, N
516152, 1433.7555555555555, N
516476, 1434.6555555555556, N
516668, 1435.1888888888889, V
517167, 1436.575, N
517506, 1437.5166666666667, N
517859, 1438.4972222222223, N
518192, 1439.4222222222222, N
518520, 1440.3333333333333, N
518722, 1440.8944444444444, V
519203, 1442.2305555555556, N
519407, 1442.7972222222222, V
519893, 1444.1472222222221, N
520225, 1445.0694444444443, N
520423, 1445.6194444444445, V
520892, 1446.9222222222222, N
521215, 1447.8194444444443, N
521532, 1448.7, N
521725, 1449.236111111111, V
522188, 1450.5222222222221, N
522380, 1451.0555555555557, V
522816, 1452.2666666666667, N
523134, 1453.15, N
523326, 1453.6833333333334, V
523758, 1454.8833333333334, N
523958, 1455.4388888888889, V
524405, 1456.6805555555557, N
524726, 1457.5722222222223, N
525047, 1458.463888888889, N
525142, 1458.7277777777779, +
525237, 1458.9916666666666, V
525734, 1460.3722222222223, N
525931, 1460.9194444444445, V
526410, 1462.25, N
526615, 1462.8194444444443, V
526848, 1463.4666666666667, +
527081, 1464.1138888888888, N
527416, 1465.0444444444445, N
527511, 1465.3083333333334, +
527606, 1465.5722222222223, V
528057, 1466.825, N
528383, 1467.7305555555556, N
528570, 1468.25, V
529016, 1469.4888888888888, N
529338, 1470.3833333333334, N
529526, 1470.9055555555556, V
529995, 1472.2083333333333, N
530321, 1473.1138888888888, N
530512, 1473.6444444444444, V
530978, 1474.9388888888889, N
531298, 1475.8277777777778, N
531395, 1476.0972222222222, +
531492, 1476.3666666666666, V
531938, 1477.6055555555556, N
532129, 1478.1361111111112, V
532590, 1479.4166666666667, N
532789, 1479.9694444444444, V
533012, 1480.588888888889, +
533236, 1481.2111111111112, N
533549, 1482.0805555555555, N
533863, 1482.9527777777778, N
534185, 1483.8472222222222, N
534516, 1484.7666666666667, N
534611, 1485.0305555555556, +
534706, 1485.2944444444445, V
535197, 1486.6583333333333, N
535400, 1487.2222222222222, V
535896, 1488.6, N
536087, 1489.1305555555555, V
536572, 1490.4777777777779, N
536781, 1491.0583333333334, V
537245, 1492.3472222222222, N
537464, 1492.9555555555555, V
537912, 1494.2, N
538109, 1494.7472222222223, V
538565, 1496.013888888889, N
538766, 1496.5722222222223, V
538995, 1497.2083333333333, +
539224, 1497.8444444444444, N
539536, 1498.7111111111112, N
539849, 1499.5805555555555, N
540157, 1500.4361111111111, N
540476, 1501.3222222222223, N
540800, 1502.2222222222222, N
541127, 1503.1305555555555, N
541471, 1504.0861111111112, N
541814, 1505.0388888888888, N
542151, 1505.975, N
542503, 1506.9527777777778, N
542851, 1507.9194444444445, N
543202, 1508.8944444444444, N
543559, 1509.8861111111112, N
543897, 1510.825, N
544252, 1511.8111111111111, N
544600, 1512.7777777777778, N
544933, 1513.7027777777778, N
545274, 1514.65, N
545620, 1515.611111111111, N
545971, 1516.5861111111112, N
546065, 1516.8472222222222, +
546159, 1517.1083333333333, V
546667, 1518.5194444444444, N
546869, 1519.0805555555555, V
547358, 1520.4388888888889, N
547564, 1521.0111111111112, V
548044, 1522.3444444444444, N
548251, 1522.9194444444445, V
548723, 1524.2305555555556, N
548927, 1524.7972222222222, V
549155, 1525.4305555555557, +
549383, 1526.0638888888889, N
549711, 1526.975, N
549902, 1527.5055555555555, V
550357, 1528.7694444444444, N
550677, 1529.6583333333333, N
550994, 1530.5388888888888, N
551092, 1530.8111111111111, +
551191, 1531.0861111111112, V
551632, 1532.3111111111111, N
551830, 1532.861111111111, V
552115, 1533.6527777777778, ~
552254, 1534.0388888888888, N
552445, 1534.5694444444443, V
552636, 1535.1, +
552828, 1535.6333333333334, N
553104, 1536.4, N
553291, 1536.9194444444445, V
553637, 1537.8805555555555, N
553907, 1538.6305555555555, N
554167, 1539.3527777777779, N
554423, 1540.0638888888889, N
554683, 1540.786111111111, N
554946, 1541.5166666666667, N
555142, 1542.0611111111111, V
555483, 1543.0083333333334, N
555762, 1543.7833333333333, N
555951, 1544.3083333333334, V
556321, 1545.3361111111112, N
556520, 1545.888888888889, V
556704, 1546.4, ~
556892, 1546.9222222222222, N
557165, 1547.6805555555557, N
557435, 1548.4305555555557, N
557635, 1548.986111111111, V
558017, 1550.0472222222222, N
558231, 1550.6416666666667, V
558608, 1551.6888888888889, N
558897, 1552.4916666666666, N
559204, 1553.3444444444444, N
559400, 1553.888888888889, V
559826, 1555.0722222222223, N
560142, 1555.95, N
560465, 1556.8472222222222, N
560661, 1557.3916666666667, V
561141, 1558.725, N
561494, 1559.7055555555555, N
561835, 1560.6527777777778, N
562171, 1561.5861111111112, N
562361, 1562.1138888888888, V
562885, 1563.5694444444443, N
563228, 1564.5222222222221, N
563563, 1565.4527777777778, N
563753, 1565.9805555555556, V
564251, 1567.3638888888888, N
564586, 1568.2944444444445, N
564925, 1569.236111111111, N
565251, 1570.1416666666667, N
565586, 1571.0722222222223, N
565923, 1572.0083333333334, N
566229, 1572.8583333333333, N
566536, 1573.7111111111112, N
566726, 1574.2388888888888, V
567132, 1575.3666666666666, N
567327, 1575.9083333333333, V
567775, 1577.1527777777778, N
568084, 1578.0111111111112, N
568387, 1578.8527777777779, N
568599, 1579.4416666666666, V
569032, 1580.6444444444444, N
569225, 1581.1805555555557, V
569685, 1582.4583333333333, N
569997, 1583.325, N
570314, 1584.2055555555555, N
570507, 1584.7416666666666, V
570958, 1585.9944444444445, N
571153, 1586.536111111111, V
571569, 1587.6916666666666, N
571856, 1588.4888888888888, N
572143, 1589.286111111111, N
572333, 1589.8138888888889, V
572745, 1590.9583333333333, N
573031, 1591.7527777777777, N
573318, 1592.55, N
573600, 1593.3333333333333, N
573790, 1593.861111111111, V
574184, 1594.9555555555555, N
574388, 1595.5222222222221, V
574783, 1596.6194444444445, N
575080, 1597.4444444444443, N
575370, 1598.25, N
575566, 1598.7944444444445, V
575966, 1599.9055555555556, N
576262, 1600.7277777777779, N
576560, 1601.5555555555557, N
576872, 1602.4222222222222, N
577176, 1603.2666666666667, N
577364, 1603.7888888888888, V
577856, 1605.1555555555556, N
577950, 1605.4166666666667, +
578045, 1605.6805555555557, V
578546, 1607.0722222222223, N
578872, 1607.9777777777779, N
579062, 1608.5055555555555, V
579541, 1609.8361111111112, N
579876, 1610.7666666666667, N
580061, 1611.2805555555556, V
580569, 1612.6916666666666, N
580936, 1613.7111111111112, N
581130, 1614.25, V
581388, 1614.9666666666667, +
581646, 1615.6833333333334, N
581847, 1616.2416666666666, V
582354, 1617.65, N
582716, 1618.6555555555556, N
582911, 1619.1972222222223, V
583427, 1620.6305555555555, N
583617, 1621.1583333333333, V
584146, 1622.6277777777777, N
584490, 1623.5833333333333, N
584822, 1624.5055555555555, N
585162, 1625.45, N
585494, 1626.3722222222223, N
585823, 1627.286111111111, N
586014, 1627.8166666666666, V
586522, 1629.2277777777779, N
586717, 1629.7694444444444, V
587190, 1631.0833333333333, N
587539, 1632.0527777777777, N
587861, 1632.9472222222223, N
588171, 1633.8083333333334, N
588365, 1634.3472222222222, V
588818, 1635.6055555555556, N
589011, 1636.1416666666667, V
589469, 1637.4138888888888, N
589789, 1638.3027777777777, N
590090, 1639.138888888889, N
590388, 1639.9666666666667, N
590710, 1640.861111111111, N
590905, 1641.4027777777778, V
591379, 1642.7194444444444, N
591721, 1643.6694444444445, N
592049, 1644.5805555555555, N
592369, 1645.4694444444444, N
592691, 1646.3638888888888, N
593017, 1647.2694444444444, N
593337, 1648.1583333333333, N
593681, 1649.1138888888888, N
594022, 1650.0611111111111, N
594352, 1650.9777777777779, N
594696, 1651.9333333333334, N
595057, 1652.9361111111111, N
595404, 1653.9, N
595732, 1654.8111111111111, N
595936, 1655.3777777777777, V
596430, 1656.75, N
596763, 1657.675, N
596951, 1658.1972222222223, V
597438, 1659.55, N
597763, 1660.4527777777778, N
598081, 1661.3361111111112, N
598410, 1662.25, N
598741, 1663.1694444444445, N
599087, 1664.1305555555555, N
599286, 1664.6833333333334, V
599792, 1666.088888888889, N
600142, 1667.0611111111111, N
600499, 1668.0527777777777, N
600841, 1669.0027777777777, N
601194, 1669.9833333333333, N
601384, 1670.5111111111112, V
601911, 1671.975, N
602113, 1672.536111111111, V
602640, 1674.0, N
602981, 1674.9472222222223, N
603163, 1675.4527777777778, V
603677, 1676.8805555555555, N
604018, 1677.8277777777778, N
604360, 1678.7777777777778, N
604684, 1679.6777777777777, N
605007, 1680.575, N
605214, 1681.15, V
605696, 1682.4888888888888, N
606023, 1683.3972222222221, N
606211, 1683.9194444444445, V
606690, 1685.25, N
607020, 1686.1666666666667, N
607345, 1687.0694444444443, N
607663, 1687.9527777777778, N
607975, 1688.8194444444443, N
608291, 1689.6972222222223, N
608617, 1690.6027777777779, N
608937, 1691.4916666666666, N
609255, 1692.375, N
609604, 1693.3444444444444, N
609933, 1694.2583333333334, N
610248, 1695.1333333333334, N
610445, 1695.6805555555557, V
610925, 1697.013888888889, N
611113, 1697.536111111111, V
611591, 1698.8638888888888, N
611932, 1699.8111111111111, N
612261, 1700.725, N
612574, 1701.5944444444444, N
612667, 1701.8527777777779, +
612760, 1702.111111111111, V
613233, 1703.425, N
613432, 1703.9777777777779, V
613890, 1705.25, N
614098, 1705.8277777777778, V
614335, 1706.486111111111, +
614561, 1707.1138888888888, N
614896, 1708.0444444444445, N
615224, 1708.9555555555555, N
615331, 1709.2527777777777, +
615427, 1709.5194444444444, V
615924, 1710.9, N
616273, 1711.8694444444445, N
616468, 1712.411111111111, V
616978, 1713.8277777777778, N
617322, 1714.7833333333333, N
617516, 1715.3222222222223, V
617767, 1716.0194444444444, +
618019, 1716.7194444444444, N
618368, 1717.6888888888889, N
618707, 1718.6305555555555, N
619052, 1719.588888888889, N
619388, 1720.5222222222221, N
619723, 1721.4527777777778, N
620087, 1722.463888888889, N
620432, 1723.4222222222222, N
620776, 1724.3777777777777, N
621137, 1725.3805555555555, N
621489, 1726.3583333333333, N
621828, 1727.3, N
622170, 1728.25, N
622522, 1729.2277777777779, N
622866, 1730.1833333333334, N
623195, 1731.0972222222222, N
623546, 1732.0722222222223, N
623892, 1733.0333333333333, N
624216, 1733.9333333333334, N
624547, 1734.8527777777779, N
624885, 1735.7916666666667, N
625226, 1736.7388888888888, N
625566, 1737.6833333333334, N
625907, 1738.6305555555555, N
626250, 1739.5833333333333, N
626576, 1740.4888888888888, N
626919, 1741.4416666666666, N
627261, 1742.3916666666667, N
627586, 1743.2944444444445, N
627927, 1744.2416666666666, N
628268, 1745.1888888888889, N
628600, 1746.111111111111, N
628937, 1747.0472222222222, N
629278, 1747.9944444444445, N
629605, 1748.9027777777778, N
629936, 1749.8222222222223, N
630275, 1750.763888888889, N
630618, 1751.7166666666667, N
630947, 1752.6305555555555, N
631279, 1753.5527777777777, N
631611, 1754.475, N
631938, 1755.3833333333334, N
632272, 1756.3111111111111, N
632606, 1757.2388888888888, N
632932, 1758.1444444444444, N
633123, 1758.675, V
633606, 1760.0166666666667, N
633803, 1760.5638888888889, V
634289, 1761.9138888888888, N
634636, 1762.8777777777777, N
634955, 1763.763888888889, N
635269, 1764.6361111111112, N
635589, 1765.525, N
635904, 1766.4, N
636213, 1767.2583333333334, N
636521, 1768.1138888888888, N
636842, 1769.0055555555555, N
637159, 1769.8861111111112, N
637467, 1770.7416666666666, N
637794, 1771.65, N
638114, 1772.5388888888888, N
638430, 1773.4166666666667, N
638625, 1773.9583333333333, V
639100, 1775.2777777777778, N
639432, 1776.2, N
639759, 1777.1083333333333, N
640094, 1778.0388888888888, N
640428, 1778.9666666666667, N
640755, 1779.875, N
640952, 1780.4222222222222, V
641450, 1781.8055555555557, N
641792, 1782.7555555555555, N
642128, 1783.6888888888889, N
642479, 1784.6638888888888, N
642818, 1785.6055555555556, N
643158, 1786.55, N
643502, 1787.5055555555555, N
643855, 1788.486111111111, N
644194, 1789.4277777777777, N
644525, 1790.3472222222222, N
644879, 1791.3305555555555, N
645228, 1792.3, N
645557, 1793.213888888889, N
645749, 1793.7472222222223, V
646226, 1795.0722222222223, N
646557, 1795.9916666666666, N
646880, 1796.888888888889, N
647197, 1797.7694444444444, N
647520, 1798.6666666666667, N
647836, 1799.5444444444445, N
648153, 1800.425, N
648479, 1801.3305555555555, N
648792, 1802.2, N
649129, 1803.1361111111112, N
649468, 1804.0777777777778, N
649788, 1804.9666666666667, N
