36, 0.1, +
163, 0.4527777777777778, N
513, 1.425, N
874, 2.4277777777777776, N
1217, 3.3805555555555555, N
1569, 4.358333333333333, N
1924, 5.344444444444444, N
2283, 6.341666666666667, N
2642, 7.338888888888889, N
3012, 8.366666666666667, N
3380, 9.38888888888889, N
3740, 10.38888888888889, N
4112, 11.422222222222222, N
4463, 12.397222222222222, N
4820, 13.38888888888889, N
5188, 14.411111111111111, N
5544, 15.4, N
5901, 16.391666666666666, N
6265, 17.40277777777778, N
6625, 18.40277777777778, N
6985, 19.40277777777778, N
7343, 20.397222222222222, N
7698, 21.383333333333333, N
8048, 22.355555555555554, N
8398, 23.32777777777778, N
8748, 24.3, N
9101, 25.280555555555555, N
9451, 26.252777777777776, N
9798, 27.216666666666665, N
10160, 28.22222222222222, N
10511, 29.197222222222223, N
10858, 30.16111111111111, N
11222, 31.17222222222222, N
11577, 32.15833333333333, N
11933, 33.147222222222226, N
12295, 34.15277777777778, N
12655, 35.15277777777778, N
13022, 36.172222222222224, N
13396, 37.21111111111111, N
13765, 38.236111111111114, N
14141, 39.28055555555556, N
14515, 40.31944444444444, N
14889, 41.358333333333334, N
15267, 42.40833333333333, N
15637, 43.43611111111111, N
16007, 44.46388888888889, N
16385, 45.513888888888886, N
16746, 46.516666666666666, N
17113, 47.53611111111111, N
17480, 48.55555555555556, N
17839, 49.55277777777778, N
18189, 50.525, N
18539, 51.49722222222222, N
18886, 52.46111111111111, N
19245, 53.458333333333336, N
19599, 54.44166666666667, N
19952, 55.422222222222224, N
20320, 56.44444444444444, N
20682, 57.45, N
21049, 58.46944444444444, N
21420, 59.5, N
21779, 60.49722222222222, N
22151, 61.53055555555556, N
22519, 62.55277777777778, N
22876, 63.544444444444444, N
23240, 64.55555555555556, N
23603, 65.56388888888888, N
23960, 66.55555555555556, N
24313, 67.53611111111111, N
24659, 68.49722222222222, N
25004, 69.45555555555555, N
25362, 70.45, N
25716, 71.43333333333334, N
26068, 72.41111111111111, N
26434, 73.42777777777778, N
26791, 74.41944444444445, N
27145, 75.40277777777777, N
27511, 76.41944444444445, N
27874, 77.42777777777778, N
28239, 78.44166666666666, N
28608, 79.46666666666667, N
28970, 80.47222222222223, N
29341, 81.50277777777778, N
29715, 82.54166666666667, N
30088, 83.57777777777778, N
30457, 84.60277777777777, N
30830, 85.63888888888889, N
31199, 86.66388888888889, N
31579, 87.71944444444445, N
31948, 88.74444444444444, N
32315, 89.76388888888889, N
32688, 90.8, N
33060, 91.83333333333333, N
33421, 92.83611111111111, N
33781, 93.83611111111111, N
34149, 94.85833333333333, N
34519, 95.8861111111111, N
34886, 96.90555555555555, N
35251, 97.91944444444445, N
35623, 98.95277777777778, N
35992, 99.97777777777777, N
36356, 100.9888888888889, N
36724, 102.0111111111111, N
37091, 103.03055555555555, N
37463, 104.06388888888888, N
37840, 105.11111111111111, N
38209, 106.1361111111111, N
38584, 107.17777777777778, N
38955, 108.20833333333333, N
39314, 109.20555555555555, N
39675, 110.20833333333333, N
40029, 111.19166666666666, N
40385, 112.18055555555556, N
40743, 113.175, N
41091, 114.14166666666667, N
41439, 115.10833333333333, N
41804, 116.12222222222222, N
42160, 117.11111111111111, N
42509, 118.08055555555555, N
42865, 119.06944444444444, N
43213, 120.03611111111111, N
43568, 121.02222222222223, N
43924, 122.0111111111111, N
44280, 123.0, N
44641, 124.00277777777778, N
45006, 125.01666666666667, N
45368, 126.02222222222223, N
45716, 126.9888888888889, N
46072, 127.97777777777777, N
46425, 128.95833333333334, N
46780, 129.94444444444446, N
47127, 130.90833333333333, N
47473, 131.86944444444444, N
47818, 132.82777777777778, N
48159, 133.775, N
48493, 134.70277777777778, N
48833, 135.6472222222222, N
49175, 136.59722222222223, N
49518, 137.55, N
49871, 138.53055555555557, N
50217, 139.49166666666667, N
50567, 140.4638888888889, N
50920, 141.44444444444446, N
51257, 142.38055555555556, N
51599, 143.33055555555555, N
51941, 144.28055555555557, N
52276, 145.2111111111111, N
52603, 146.11944444444444, N
52940, 147.05555555555554, N
53278, 147.99444444444444, N
53622, 148.95, N
53982, 149.95, N
54340, 150.94444444444446, N
54699, 151.94166666666666, N
55066, 152.9611111111111, N
55424, 153.95555555555555, N
55779, 154.94166666666666, N
56142, 155.95, N
56492, 156.92222222222222, N
56842, 157.89444444444445, N
57194, 158.87222222222223, N
57542, 159.8388888888889, N
57886, 160.79444444444445, N
58230, 161.75, N
58578, 162.71666666666667, N
58927, 163.6861111111111, N
59281, 164.66944444444445, N
59625, 165.625, N
59974, 166.59444444444443, N
60324, 167.56666666666666, N
60666, 168.51666666666668, N
61007, 169.4638888888889, N
61349, 170.4138888888889, N
61692, 171.36666666666667, N
62039, 172.33055555555555, N
62383, 173.2861111111111, N
62722, 174.2277777777778, N
63060, 175.16666666666666, N
63392, 176.0888888888889, N
63731, 177.03055555555557, N
64057, 177.9361111111111, N
64387, 178.8527777777778, N
64716, 179.76666666666668, N
65049, 180.69166666666666, N
65390, 181.63888888888889, N
65730, 182.58333333333334, N
66075, 183.54166666666666, N
66421, 184.50277777777777, N
66768, 185.46666666666667, N
67112, 186.42222222222222, N
67453, 187.36944444444444, N
67795, 188.31944444444446, N
68142, 189.28333333333333, N
68478, 190.21666666666667, N
68815, 191.15277777777777, N
69167, 192.13055555555556, N
69517, 193.1027777777778, N
69856, 194.04444444444445, N
70203, 195.00833333333333, N
70552, 195.9777777777778, N
70911, 196.975, N
71279, 197.99722222222223, N
71623, 198.95277777777778, N
71979, 199.94166666666666, N
72350, 200.97222222222223, N
72715, 201.98611111111111, N
73077, 202.99166666666667, N
73452, 204.03333333333333, N
73824, 205.06666666666666, N
74200, 206.11111111111111, N
74568, 207.13333333333333, N
74927, 208.13055555555556, N
75300, 209.16666666666666, N
75668, 210.1888888888889, N
76024, 211.17777777777778, N
76390, 212.19444444444446, N
76642, 212.89444444444445, ~
76751, 213.19722222222222, N
77110, 214.19444444444446, N
77472, 215.2, N
77821, 216.16944444444445, N
78171, 217.14166666666668, N
78526, 218.12777777777777, N
78875, 219.09722222222223, N
79220, 220.05555555555554, N
79569, 221.025, N
79915, 221.98611111111111, N
80263, 222.95277777777778, N
80614, 223.92777777777778, N
80961, 224.89166666666668, N
81311, 225.86388888888888, N
81653, 226.8138888888889, N
82000, 227.77777777777777, N
82342, 228.7277777777778, N
82689, 229.69166666666666, N
83038, 230.6611111111111, N
83390, 231.63888888888889, N
83740, 232.61111111111111, N
84084, 233.56666666666666, N
84439, 234.55277777777778, N
84785, 235.51388888888889, N
85138, 236.49444444444444, N
85488, 237.46666666666667, N
85833, 238.425, N
86170, 239.36111111111111, N
86513, 240.3138888888889, N
86852, 241.25555555555556, N
87031, 241.75277777777777, ~
87192, 242.2, N
87538, 243.1611111111111, N
87875, 244.09722222222223, N
88217, 245.04722222222222, N
88564, 246.01111111111112, N
88911, 246.975, N
89267, 247.9638888888889, N
89625, 248.95833333333334, N
89979, 249.94166666666666, N
90341, 250.94722222222222, N
90708, 251.96666666666667, N
91067, 252.9638888888889, N
91415, 253.93055555555554, N
91770, 254.91666666666666, N
92121, 255.89166666666668, N
92465, 256.84722222222223, N
92813, 257.81388888888887, N
93160, 258.77777777777777, N
93510, 259.75, N
93869, 260.7472222222222, N
94219, 261.71944444444443, N
94569, 262.69166666666666, N
94921, 263.6694444444444, N
95280, 264.6666666666667, N
95645, 265.68055555555554, N
96007, 266.68611111111113, N
96362, 267.6722222222222, N
96729, 268.69166666666666, N
97099, 269.71944444444443, N
97464, 270.73333333333335, N
97837, 271.76944444444445, N
98200, 272.77777777777777, N
98567, 273.7972222222222, N
98939, 274.8305555555556, N
99299, 275.8305555555556, N
99664, 276.84444444444443, N
100030, 277.8611111111111, N
100394, 278.8722222222222, N
100756, 279.8777777777778, N
101121, 280.89166666666665, N
101487, 281.90833333333336, N
101860, 282.94444444444446, N
102229, 283.96944444444443, N
102601, 285.0027777777778, N
102983, 286.06388888888887, N
103358, 287.10555555555555, N
103729, 288.1361111111111, N
104102, 289.1722222222222, N
104473, 290.2027777777778, N
104842, 291.22777777777776, N
105201, 292.225, N
105564, 293.23333333333335, N
105934, 294.2611111111111, N
106292, 295.25555555555553, N
106648, 296.24444444444447, N
107009, 297.2472222222222, N
107367, 298.2416666666667, N
107724, 299.23333333333335, N
108085, 300.2361111111111, N
108441, 301.225, N
108794, 302.2055555555556, N
109152, 303.2, N
109511, 304.1972222222222, N
109864, 305.1777777777778, N
110226, 306.18333333333334, N
110588, 307.18888888888887, N
110958, 308.21666666666664, N
111323, 309.23055555555555, N
111683, 310.23055555555555, N
112056, 311.26666666666665, N
112422, 312.28333333333336, N
112787, 313.2972222222222, N
113154, 314.31666666666666, N
113522, 315.3388888888889, N
113894, 316.3722222222222, N
114262, 317.39444444444445, N
114624, 318.4, N
114995, 319.43055555555554, N
115359, 320.44166666666666, N
115712, 321.4222222222222, N
116076, 322.43333333333334, N
116426, 323.40555555555557, N
116774, 324.3722222222222, N
117134, 325.3722222222222, N
117478, 326.3277777777778, N
117824, 327.2888888888889, N
118177, 328.26944444444445, N
118521, 329.225, N
118873, 330.2027777777778, N
119233, 331.2027777777778, N
119602, 332.22777777777776, N
119977, 333.26944444444445, N
120343, 334.2861111111111, N
120712, 335.31111111111113, N
121088, 336.35555555555555, N
121461, 337.39166666666665, N
121829, 338.4138888888889, N
122196, 339.43333333333334, N
122561, 340.4472222222222, N
122923, 341.4527777777778, N
123287, 342.4638888888889, N
123645, 343.4583333333333, N
124009, 344.46944444444443, N
124382, 345.50555555555553, N
124744, 346.5111111111111, N
125093, 347.48055555555555, N
125451, 348.475, N
125802, 349.45, N
126161, 350.4472222222222, N
126521, 351.4472222222222, N
126879, 352.44166666666666, N
127253, 353.48055555555555, N
127623, 354.5083333333333, N
127992, 355.53333333333336, N
128366, 356.5722222222222, N
128726, 357.5722222222222, N
129098, 358.60555555555555, N
129479, 359.6638888888889, N
129855, 360.7083333333333, N
130221, 361.725, N
130598, 362.77222222222224, N
130971, 363.80833333333334, N
131334, 364.81666666666666, N
131694, 365.81666666666666, N
132058, 366.8277777777778, N
132428, 367.85555555555555, N
132783, 368.84166666666664, N
133138, 369.8277777777778, N
133507, 370.85277777777776, N
133867, 371.85277777777776, N
134226, 372.85, N
134592, 373.8666666666667, N
134951, 374.8638888888889, N
135313, 375.86944444444447, N
135678, 376.8833333333333, N
136039, 377.8861111111111, N
136402, 378.89444444444445, N
136762, 379.89444444444445, N
137120, 380.8888888888889, N
137473, 381.86944444444447, N
137827, 382.85277777777776, N
138175, 383.81944444444446, N
138540, 384.8333333333333, N
138897, 385.825, N
139249, 386.8027777777778, N
139612, 387.81111111111113, N
139961, 388.78055555555557, N
140306, 389.7388888888889, N
140655, 390.7083333333333, N
141003, 391.675, N
141349, 392.6361111111111, N
141697, 393.60277777777776, N
142028, 394.52222222222224, N
142356, 395.43333333333334, N
142695, 396.375, N
143023, 397.2861111111111, N
143339, 398.1638888888889, N
143662, 399.06111111111113, N
143972, 399.9222222222222, N
144279, 400.775, N
144592, 401.64444444444445, N
144899, 402.4972222222222, N
145211, 403.3638888888889, N
145529, 404.2472222222222, N
145852, 405.14444444444445, N
146179, 406.0527777777778, N
146501, 406.9472222222222, N
146827, 407.85277777777776, N
147147, 408.7416666666667, N
147468, 409.6333333333333, N
147790, 410.52777777777777, N
148105, 411.40277777777777, N
148416, 412.26666666666665, N
148736, 413.15555555555557, N
149049, 414.025, N
149358, 414.8833333333333, N
149672, 415.75555555555553, N
149990, 416.6388888888889, N
150312, 417.53333333333336, N
150638, 418.43888888888887, N
150967, 419.35277777777776, N
151304, 420.2888888888889, N
151649, 421.2472222222222, N
151989, 422.19166666666666, N
152320, 423.1111111111111, N
152659, 424.0527777777778, N
152993, 424.98055555555555, N
153337, 425.93611111111113, N
153685, 426.90277777777777, N
154031, 427.8638888888889, N
154375, 428.81944444444446, N
154723, 429.7861111111111, N
155070, 430.75, N
155412, 431.7, N
155754, 432.65, N
156092, 433.5888888888889, N
156426, 434.51666666666665, N
156768, 435.46666666666664, N
157105, 436.40277777777777, N
157442, 437.3388888888889, N
157793, 438.31388888888887, N
158137, 439.26944444444445, N
158483, 440.23055555555555, N
158833, 441.2027777777778, N
159188, 442.18888888888887, N
159547, 443.18611111111113, N
159915, 444.2083333333333, N
160270, 445.19444444444446, N
160615, 446.15277777777777, N
160970, 447.1388888888889, N
161318, 448.10555555555555, N
161657, 449.0472222222222, N
162007, 450.01944444444445, N
162356, 450.9888888888889, N
162711, 451.975, N
163064, 452.9555555555556, N
163408, 453.9111111111111, N
163746, 454.85, N
164096, 455.8222222222222, N
164439, 456.775, N
164770, 457.69444444444446, N
165114, 458.65, N
165450, 459.5833333333333, N
165791, 460.53055555555557, N
166140, 461.5, N
166485, 462.4583333333333, N
166838, 463.43888888888887, N
167199, 464.44166666666666, N
167558, 465.43888888888887, N
167905, 466.40277777777777, N
168262, 467.39444444444445, N
168616, 468.3777777777778, N
168966, 469.35, N
169318, 470.3277777777778, N
169665, 471.2916666666667, N
170023, 472.2861111111111, N
170382, 473.28333333333336, N
170737, 474.26944444444445, N
171084, 475.23333333333335, N
171438, 476.21666666666664, N
171795, 477.2083333333333, N
172153, 478.2027777777778, N
172495, 479.15277777777777, N
172839, 480.10833333333335, N
173188, 481.0777777777778, N
173525, 482.0138888888889, N
173855, 482.93055555555554, N
174189, 483.85833333333335, N
174516, 484.76666666666665, N
174854, 485.7055555555556, N
175207, 486.68611111111113, N
175552, 487.64444444444445, N
175900, 488.6111111111111, N
176261, 489.6138888888889, N
176612, 490.5888888888889, N
176953, 491.5361111111111, N
177305, 492.5138888888889, N
177647, 493.4638888888889, N
177983, 494.39722222222224, N
178322, 495.3388888888889, N
178660, 496.27777777777777, N
179008, 497.24444444444447, N
179370, 498.25, N
179728, 499.24444444444447, N
180092, 500.25555555555553, N
180457, 501.26944444444445, N
180825, 502.2916666666667, N
181183, 503.2861111111111, N
181552, 504.31111111111113, N
181914, 505.31666666666666, N
182279, 506.3305555555556, N
182639, 507.3305555555556, N
182991, 508.30833333333334, N
183342, 509.28333333333336, N
183687, 510.2416666666667, N
184034, 511.2055555555556, N
184385, 512.1805555555555, N
184730, 513.1388888888889, N
185070, 514.0833333333334, N
185420, 515.0555555555555, N
185767, 516.0194444444444, N
186111, 516.975, N
186461, 517.9472222222222, N
186813, 518.925, N
187165, 519.9027777777778, N
187528, 520.9111111111112, N
187887, 521.9083333333333, N
188241, 522.8916666666667, N
188612, 523.9222222222222, N
188974, 524.9277777777778, N
189314, 525.8722222222223, N
189664, 526.8444444444444, N
190018, 527.8277777777778, N
190376, 528.8222222222222, N
190733, 529.8138888888889, N
191083, 530.7861111111112, N
191441, 531.7805555555556, N
191798, 532.7722222222222, N
192153, 533.7583333333333, N
192504, 534.7333333333333, N
192861, 535.725, N
193222, 536.7277777777778, N
193590, 537.75, N
193944, 538.7333333333333, N
194299, 539.7194444444444, N
194665, 540.7361111111111, N
195020, 541.7222222222222, N
195368, 542.6888888888889, N
195723, 543.675, N
196076, 544.6555555555556, N
196440, 545.6666666666666, N
196802, 546.6722222222222, N
197167, 547.6861111111111, N
197537, 548.7138888888888, N
197908, 549.7444444444444, N
198271, 550.7527777777777, N
198636, 551.7666666666667, N
199001, 552.7805555555556, N
199365, 553.7916666666666, N
199732, 554.8111111111111, N
200093, 555.8138888888889, N
200456, 556.8222222222222, N
200825, 557.8472222222222, N
201192, 558.8666666666667, N
201551, 559.8638888888889, N
201916, 560.8777777777777, N
202268, 561.8555555555556, N
202623, 562.8416666666667, N
202979, 563.8305555555555, N
203339, 564.8305555555555, N
203706, 565.85, N
204074, 566.8722222222223, N
204436, 567.8777777777777, N
204808, 568.9111111111112, N
205176, 569.9333333333333, N
205540, 570.9444444444445, N
205903, 571.9527777777778, N
206264, 572.9555555555555, N
206631, 573.975, N
207000, 575.0, N
207368, 576.0222222222222, N
207725, 577.0138888888889, N
208086, 578.0166666666667, N
208447, 579.0194444444444, N
208817, 580.0472222222222, N
209180, 581.0555555555555, N
209546, 582.0722222222222, N
209924, 583.1222222222223, N
210299, 584.1638888888889, N
210674, 585.2055555555555, N
211058, 586.2722222222222, N
211434, 587.3166666666667, N
211822, 588.3944444444444, N
212205, 589.4583333333334, N
212582, 590.5055555555556, N
212970, 591.5833333333334, N
213347, 592.6305555555556, N
213719, 593.6638888888889, N
214094, 594.7055555555555, N
214475, 595.7638888888889, N
214859, 596.8305555555555, N
215234, 597.8722222222223, N
215604, 598.9, N
215978, 599.9388888888889, N
216339, 600.9416666666667, N
216699, 601.9416666666667, N
217064, 602.9555555555555, N
217423, 603.9527777777778, N
217783, 604.9527777777778, N
218158, 605.9944444444444, N
218528, 607.0222222222222, N
218901, 608.0583333333333, N
219284, 609.1222222222223, N
219660, 610.1666666666666, N
220031, 611.1972222222222, N
220409, 612.2472222222223, N
220789, 613.3027777777778, N
221173, 614.3694444444444, N
221543, 615.3972222222222, N
221918, 616.4388888888889, N
222301, 617.5027777777777, N
222680, 618.5555555555555, N
223054, 619.5944444444444, N
223431, 620.6416666666667, N
223814, 621.7055555555555, N
224197, 622.7694444444444, N
224564, 623.7888888888889, N
224929, 624.8027777777778, N
225306, 625.85, N
225668, 626.8555555555556, N
226029, 627.8583333333333, N
226398, 628.8833333333333, N
226758, 629.8833333333333, N
227128, 630.9111111111112, N
227500, 631.9444444444445, N
227865, 632.9583333333334, N
228243, 634.0083333333333, N
228619, 635.0527777777778, N
228985, 636.0694444444445, N
229361, 637.1138888888889, N
229726, 638.1277777777777, N
230094, 639.15, N
230471, 640.1972222222222, N
230838, 641.2166666666667, N
231209, 642.2472222222223, N
231583, 643.2861111111112, N
231951, 644.3083333333333, N
232321, 645.3361111111111, N
232687, 646.3527777777778, N
233045, 647.3472222222222, N
233414, 648.3722222222223, N
233769, 649.3583333333333, N
234134, 650.3722222222223, N
234506, 651.4055555555556, N
234872, 652.4222222222222, N
235233, 653.425, N
235593, 654.425, N
235951, 655.4194444444445, N
236318, 656.4388888888889, N
236682, 657.45, N
237043, 658.4527777777778, N
237407, 659.4638888888888, N
237769, 660.4694444444444, N
238128, 661.4666666666667, N
238493, 662.4805555555556, N
238858, 663.4944444444444, N
239231, 664.5305555555556, N
239605, 665.5694444444445, N
239977, 666.6027777777778, N
240356, 667.6555555555556, N
240731, 668.6972222222222, N
241107, 669.7416666666667, N
241476, 670.7666666666667, N
241849, 671.8027777777778, N
242225, 672.8472222222222, N
242589, 673.8583333333333, N
242963, 674.8972222222222, N
243339, 675.9416666666667, N
243707, 676.9638888888888, N
244084, 678.0111111111111, N
244452, 679.0333333333333, N
244817, 680.0472222222222, N
245192, 681.0888888888888, N
245564, 682.1222222222223, N
245927, 683.1305555555556, N
246281, 684.1138888888889, N
246652, 685.1444444444444, N
247013, 686.1472222222222, N
247360, 687.1111111111111, N
247722, 688.1166666666667, N
248084, 689.1222222222223, N
248442, 690.1166666666667, N
248805, 691.125, N
249156, 692.1, N
249520, 693.1111111111111, N
249884, 694.1222222222223, N
250238, 695.1055555555556, N
250598, 696.1055555555556, N
250964, 697.1222222222223, N
251327, 698.1305555555556, N
251699, 699.1638888888889, N
252053, 700.1472222222222, N
252415, 701.1527777777778, N
252782, 702.1722222222222, N
253143, 703.175, N
253496, 704.1555555555556, N
253855, 705.1527777777778, N
254212, 706.1444444444444, N
254573, 707.1472222222222, N
254933, 708.1472222222222, N
255291, 709.1416666666667, N
255652, 710.1444444444444, N
256008, 711.1333333333333, N
256366, 712.1277777777777, N
256731, 713.1416666666667, N
257091, 714.1416666666667, N
257448, 715.1333333333333, N
257809, 716.1361111111111, N
258170, 717.1388888888889, N
258538, 718.1611111111112, N
258919, 719.2194444444444, N
259292, 720.2555555555556, N
259646, 721.2388888888889, N
260014, 722.2611111111111, N
260381, 723.2805555555556, N
260751, 724.3083333333333, N
261122, 725.3388888888888, N
261475, 726.3194444444445, N
261843, 727.3416666666667, N
262210, 728.3611111111111, N
262570, 729.3611111111111, N
262942, 730.3944444444444, N
263310, 731.4166666666666, N
263685, 732.4583333333334, N
264069, 733.525, N
264444, 734.5666666666667, N
264806, 735.5722222222222, N
265182, 736.6166666666667, N
265555, 737.6527777777778, N
265917, 738.6583333333333, N
266279, 739.6638888888889, N
266647, 740.6861111111111, N
267026, 741.7388888888889, N
267398, 742.7722222222222, N
267766, 743.7944444444445, N
268152, 744.8666666666667, N
268523, 745.8972222222222, N
268891, 746.9194444444445, N
269265, 747.9583333333334, N
269640, 749.0, N
270021, 750.0583333333333, N
270395, 751.0972222222222, N
270765, 752.125, N
271132, 753.1444444444444, N
271494, 754.15, N
271846, 755.1277777777777, N
272203, 756.1194444444444, N
272562, 757.1166666666667, N
272931, 758.1416666666667, N
273298, 759.1611111111112, N
273660, 760.1666666666666, N
274033, 761.2027777777778, N
274397, 762.2138888888888, N
274767, 763.2416666666667, N
275133, 764.2583333333333, N
275493, 765.2583333333333, N
275852, 766.2555555555556, N
276221, 767.2805555555556, N
276577, 768.2694444444444, N
276932, 769.2555555555556, N
277288, 770.2444444444444, N
277628, 771.1888888888889, N
277966, 772.1277777777777, N
278320, 773.1111111111111, N
278668, 774.0777777777778, N
279023, 775.0638888888889, N
279383, 776.0638888888889, N
279738, 777.05, N
280098, 778.05, N
280455, 779.0416666666666, N
280811, 780.0305555555556, N
281161, 781.0027777777777, N
281508, 781.9666666666667, N
281860, 782.9444444444445, N
282216, 783.9333333333333, N
282567, 784.9083333333333, N
282905, 785.8472222222222, N
283251, 786.8083333333333, N
283602, 787.7833333333333, N
283959, 788.775, N
284324, 789.7888888888889, N
284688, 790.8, N
285053, 791.8138888888889, N
285420, 792.8333333333334, N
285774, 793.8166666666667, N
286136, 794.8222222222222, N
286500, 795.8333333333334, N
286864, 796.8444444444444, N
287214, 797.8166666666667, N
287571, 798.8083333333333, N
287924, 799.7888888888889, N
288286, 800.7944444444445, N
288637, 801.7694444444444, N
288986, 802.7388888888889, N
289347, 803.7416666666667, N
289700, 804.7222222222222, N
290054, 805.7055555555555, N
290413, 806.7027777777778, N
290760, 807.6666666666666, N
291125, 808.6805555555555, N
291497, 809.7138888888888, N
291863, 810.7305555555556, N
292231, 811.7527777777777, N
292600, 812.7777777777778, N
292972, 813.8111111111111, N
293329, 814.8027777777778, N
293697, 815.825, N
294059, 816.8305555555555, N
294426, 817.85, N
294787, 818.8527777777778, N
295146, 819.85, N
295516, 820.8777777777777, N
295882, 821.8944444444444, N
296235, 822.875, N
296599, 823.8861111111111, N
296957, 824.8805555555556, N
297323, 825.8972222222222, N
297689, 826.9138888888889, N
298051, 827.9194444444445, N
298415, 828.9305555555555, N
298784, 829.9555555555555, N
299152, 830.9777777777778, N
299509, 831.9694444444444, N
299881, 833.0027777777777, N
300244, 834.0111111111111, N
300614, 835.0388888888889, N
300977, 836.0472222222222, N
301338, 837.05, N
301711, 838.0861111111111, N
302072, 839.0888888888888, N
302426, 840.0722222222222, N
302785, 841.0694444444445, N
303137, 842.0472222222222, N
303488, 843.0222222222222, N
303838, 843.9944444444444, N
304187, 844.9638888888888, N
304535, 845.9305555555555, N
304890, 846.9166666666666, N
305242, 847.8944444444444, N
305592, 848.8666666666667, N
305943, 849.8416666666667, N
306295, 850.8194444444445, N
306654, 851.8166666666667, N
307007, 852.7972222222222, N
307367, 853.7972222222222, N
307727, 854.7972222222222, N
308079, 855.775, N
308432, 856.7555555555556, N
308800, 857.7777777777778, N
309167, 858.7972222222222, N
309531, 859.8083333333333, N
309901, 860.8361111111111, N
310266, 861.85, N
310630, 862.8611111111111, N
311005, 863.9027777777778, N
311376, 864.9333333333333, N
311740, 865.9444444444445, N
312106, 866.9611111111111, N
312467, 867.9638888888888, N
312834, 868.9833333333333, N
313202, 870.0055555555556, N
313572, 871.0333333333333, N
313950, 872.0833333333334, N
314320, 873.1111111111111, N
314683, 874.1194444444444, N
315048, 875.1333333333333, N
315405, 876.125, N
315771, 877.1416666666667, N
316141, 878.1694444444445, N
316504, 879.1777777777778, N
316874, 880.2055555555555, N
317240, 881.2222222222222, N
317601, 882.225, N
317967, 883.2416666666667, N
318325, 884.2361111111111, N
318694, 885.2611111111111, N
319075, 886.3194444444445, N
319448, 887.3555555555556, N
319822, 888.3944444444444, N
320201, 889.4472222222222, N
320574, 890.4833333333333, N
320940, 891.5, N
321310, 892.5277777777778, N
321675, 893.5416666666666, N
322043, 894.5638888888889, N
322396, 895.5444444444445, N
322745, 896.5138888888889, N
323116, 897.5444444444445, N
323474, 898.5388888888889, N
323824, 899.5111111111111, N
324187, 900.5194444444444, N
324546, 901.5166666666667, N
324900, 902.5, N
325257, 903.4916666666667, N
325613, 904.4805555555556, N
325970, 905.4722222222222, N
326332, 906.4777777777778, N
326693, 907.4805555555556, N
327057, 908.4916666666667, N
327414, 909.4833333333333, N
327776, 910.4888888888889, N
328143, 911.5083333333333, N
328499, 912.4972222222223, N
328849, 913.4694444444444, N
329210, 914.4722222222222, N
329560, 915.4444444444445, N
329912, 916.4222222222222, N
330267, 917.4083333333333, N
330615, 918.375, N
330970, 919.3611111111111, N
331324, 920.3444444444444, N
331682, 921.3388888888888, N
332040, 922.3333333333334, N
332405, 923.3472222222222, N
332764, 924.3444444444444, N
333119, 925.3305555555555, N
333470, 926.3055555555555, N
333831, 927.3083333333333, N
334201, 928.3361111111111, N
334562, 929.3388888888888, N
334918, 930.3277777777778, N
335286, 931.35, N
335653, 932.3694444444444, N
336004, 933.3444444444444, N
336365, 934.3472222222222, N
336723, 935.3416666666667, N
337076, 936.3222222222222, N
337438, 937.3277777777778, N
337792, 938.3111111111111, N
338146, 939.2944444444445, N
338497, 940.2694444444444, N
338850, 941.25, N
339196, 942.2111111111111, N
339548, 943.1888888888889, N
339895, 944.1527777777778, N
340239, 945.1083333333333, N
340578, 946.05, N
340928, 947.0222222222222, N
341286, 948.0166666666667, N
341637, 948.9916666666667, N
341993, 949.9805555555556, N
342347, 950.9638888888888, N
342693, 951.925, N
343046, 952.9055555555556, N
343406, 953.9055555555556, N
343767, 954.9083333333333, N
344128, 955.9111111111112, N
344502, 956.95, N
344865, 957.9583333333334, N
345209, 958.9138888888889, N
345561, 959.8916666666667, N
345905, 960.8472222222222, N
346246, 961.7944444444445, N
346592, 962.7555555555556, N
346926, 963.6833333333333, N
347257, 964.6027777777778, N
347589, 965.525, N
347939, 966.4972222222223, N
348278, 967.4388888888889, N
348621, 968.3916666666667, N
348964, 969.3444444444444, N
349318, 970.3277777777778, N
349679, 971.3305555555555, N
350047, 972.3527777777778, N
350418, 973.3833333333333, N
350799, 974.4416666666667, N
351171, 975.475, N
351550, 976.5277777777778, N
351928, 977.5777777777778, N
352312, 978.6444444444444, N
352703, 979.7305555555556, N
353087, 980.7972222222222, N
353479, 981.8861111111111, N
353865, 982.9583333333334, N
354250, 984.0277777777778, N
354623, 985.0638888888889, N
354995, 986.0972222222222, N
355371, 987.1416666666667, N
355756, 988.2111111111111, N
356121, 989.225, N
356487, 990.2416666666667, N
356870, 991.3055555555555, N
357249, 992.3583333333333, N
357623, 993.3972222222222, N
357998, 994.4388888888889, N
358367, 995.4638888888888, N
358744, 996.5111111111111, N
359121, 997.5583333333333, N
359487, 998.575, N
359871, 999.6416666666667, N
360253, 1000.7027777777778, N
360619, 1001.7194444444444, N
360994, 1002.7611111111111, N
361370, 1003.8055555555555, N
361758, 1004.8833333333333, N
362133, 1005.925, N
362508, 1006.9666666666667, N
362885, 1008.0138888888889, N
363263, 1009.0638888888889, N
363634, 1010.0944444444444, N
364008, 1011.1333333333333, N
364260, 1011.8333333333334, A
364716, 1013.1, N
364922, 1013.6722222222222, V
365447, 1015.1305555555556, N
365827, 1016.1861111111111, N
366195, 1017.2083333333334, N
366551, 1018.1972222222222, N
366926, 1019.2388888888889, N
367295, 1020.2638888888889, N
367670, 1021.3055555555555, N
368047, 1022.3527777777778, N
368414, 1023.3722222222223, N
368789, 1024.4138888888888, N
369149, 1025.4138888888888, N
369513, 1026.425, N
369880, 1027.4444444444443, N
370236, 1028.4333333333334, N
370601, 1029.4472222222223, N
370966, 1030.4611111111112, N
371324, 1031.4555555555555, N
371684, 1032.4555555555555, N
372056, 1033.4888888888888, N
372416, 1034.4888888888888, N
372771, 1035.475, N
373130, 1036.4722222222222, N
373486, 1037.4611111111112, N
373847, 1038.463888888889, N
374202, 1039.45, N
374555, 1040.4305555555557, N
374922, 1041.45, N
375283, 1042.4527777777778, N
375640, 1043.4444444444443, N
376000, 1044.4444444444443, N
376352, 1045.4222222222222, N
376709, 1046.4138888888888, N
377072, 1047.4222222222222, N
377428, 1048.411111111111, N
377789, 1049.4138888888888, N
378153, 1050.425, N
378514, 1051.4277777777777, N
378872, 1052.4222222222222, N
379236, 1053.4333333333334, N
379593, 1054.425, N
379954, 1055.4277777777777, N
380310, 1056.4166666666667, N
380664, 1057.4, N
381025, 1058.4027777777778, N
381381, 1059.3916666666667, N
381737, 1060.3805555555555, N
382098, 1061.3833333333334, N
382457, 1062.3805555555555, N
382816, 1063.3777777777777, N
383187, 1064.4083333333333, N
383553, 1065.425, N
383917, 1066.4361111111111, N
384284, 1067.4555555555555, N
384644, 1068.4555555555555, N
384989, 1069.4138888888888, N
385331, 1070.3638888888888, N
385676, 1071.3222222222223, N
386030, 1072.3055555555557, N
386389, 1073.3027777777777, N
386737, 1074.2694444444444, N
387102, 1075.2833333333333, N
387475, 1076.3194444444443, N
387851, 1077.3638888888888, N
388224, 1078.4, N
388586, 1079.4055555555556, N
388957, 1080.4361111111111, N
389335, 1081.486111111111, N
389696, 1082.4888888888888, N
390050, 1083.4722222222222, N
390420, 1084.5, N
390777, 1085.4916666666666, N
391131, 1086.475, N
391488, 1087.4666666666667, N
391844, 1088.4555555555555, N
392202, 1089.45, N
392559, 1090.4416666666666, N
392915, 1091.4305555555557, N
393275, 1092.4305555555557, N
393637, 1093.4361111111111, N
393995, 1094.4305555555557, N
394355, 1095.4305555555557, N
394718, 1096.4388888888889, N
395083, 1097.4527777777778, N
395453, 1098.4805555555556, N
395818, 1099.4944444444445, N
396187, 1100.5194444444444, N
396559, 1101.5527777777777, N
396932, 1102.588888888889, N
397297, 1103.6027777777779, N
397657, 1104.6027777777779, N
398024, 1105.6222222222223, N
398390, 1106.638888888889, N
398744, 1107.6222222222223, N
399104, 1108.6222222222223, N
399477, 1109.6583333333333, N
399839, 1110.6638888888888, N
400202, 1111.6722222222222, N
400573, 1112.7027777777778, N
400937, 1113.713888888889, N
401302, 1114.7277777777779, N
401664, 1115.7333333333333, N
402025, 1116.736111111111, N
402397, 1117.7694444444444, N
402766, 1118.7944444444445, N
403125, 1119.7916666666667, N
403480, 1120.7777777777778, N
403836, 1121.7666666666667, N
404197, 1122.7694444444444, N
404566, 1123.7944444444445, N
404933, 1124.8138888888889, N
405300, 1125.8333333333333, N
405670, 1126.861111111111, N
406037, 1127.8805555555555, N
406396, 1128.8777777777777, N
406754, 1129.8722222222223, N
407113, 1130.8694444444445, N
407478, 1131.8833333333334, N
407843, 1132.8972222222221, N
408201, 1133.8916666666667, N
408578, 1134.9388888888889, N
408947, 1135.963888888889, N
409313, 1136.9805555555556, N
409690, 1138.0277777777778, N
410059, 1139.0527777777777, N
410425, 1140.0694444444443, N
410799, 1141.1083333333333, N
411171, 1142.1416666666667, N
411543, 1143.175, N
411913, 1144.2027777777778, N
412286, 1145.2388888888888, N
412662, 1146.2833333333333, N
413032, 1147.3111111111111, N
413404, 1148.3444444444444, N
413782, 1149.3944444444444, N
414154, 1150.4277777777777, N
414531, 1151.475, N
414908, 1152.5222222222221, N
415277, 1153.5472222222222, N
415650, 1154.5833333333333, N
416022, 1155.6166666666666, N
416398, 1156.661111111111, N
416783, 1157.7305555555556, N
417157, 1158.7694444444444, N
417538, 1159.8277777777778, N
417920, 1160.888888888889, N
418300, 1161.9444444444443, N
418676, 1162.9888888888888, N
419040, 1164.0, N
419412, 1165.0333333333333, N
419786, 1166.0722222222223, N
420152, 1167.088888888889, N
420516, 1168.1, N
420887, 1169.1305555555555, N
421259, 1170.1638888888888, N
421621, 1171.1694444444445, N
421990, 1172.1944444444443, N
422362, 1173.2277777777779, N
422735, 1174.263888888889, N
423110, 1175.3055555555557, N
423484, 1176.3444444444444, N
423864, 1177.4, N
424237, 1178.4361111111111, N
424607, 1179.463888888889, N
424979, 1180.4972222222223, N
425353, 1181.536111111111, N
425733, 1182.5916666666667, N
426106, 1183.6277777777777, N
426481, 1184.6694444444445, N
426859, 1185.7194444444444, N
427234, 1186.7611111111112, N
427607, 1187.7972222222222, N
427980, 1188.8333333333333, N
428357, 1189.8805555555555, N
428733, 1190.925, N
429111, 1191.975, N
429485, 1193.013888888889, N
429866, 1194.0722222222223, N
430239, 1195.1083333333333, N
430613, 1196.1472222222221, N
430989, 1197.1916666666666, N
431358, 1198.2166666666667, N
431737, 1199.2694444444444, N
432114, 1200.3166666666666, N
432484, 1201.3444444444444, N
432857, 1202.3805555555555, N
433236, 1203.4333333333334, N
433611, 1204.475, N
433981, 1205.5027777777777, N
434347, 1206.5194444444444, N
434719, 1207.5527777777777, N
435103, 1208.6194444444445, N
435481, 1209.6694444444445, N
435862, 1210.7277777777779, N
436248, 1211.8, N
436631, 1212.8638888888888, N
437011, 1213.9194444444445, N
437384, 1214.9555555555555, N
437761, 1216.0027777777777, N
438147, 1217.075, N
438526, 1218.1277777777777, N
438905, 1219.1805555555557, N
439291, 1220.2527777777777, N
439675, 1221.3194444444443, N
440054, 1222.3722222222223, N
440435, 1223.4305555555557, N
440805, 1224.4583333333333, N
441185, 1225.513888888889, N
441554, 1226.5388888888888, N
441921, 1227.5583333333334, N
442297, 1228.6027777777779, N
442665, 1229.625, N
443024, 1230.6222222222223, N
443392, 1231.6444444444444, N
443758, 1232.661111111111, N
444121, 1233.6694444444445, N
444483, 1234.675, N
444840, 1235.6666666666667, N
445209, 1236.6916666666666, N
445574, 1237.7055555555555, N
445930, 1238.6944444444443, N
446289, 1239.6916666666666, N
446638, 1240.661111111111, N
446998, 1241.661111111111, N
447365, 1242.6805555555557, N
447723, 1243.675, N
448086, 1244.6833333333334, N
448454, 1245.7055555555555, N
448814, 1246.7055555555555, N
449168, 1247.6888888888889, N
449529, 1248.6916666666666, N
449890, 1249.6944444444443, N
450250, 1250.6944444444443, N
450601, 1251.6694444444445, N
450952, 1252.6444444444444, N
451314, 1253.65, N
451665, 1254.625, N
452019, 1255.6083333333333, N
452387, 1256.6305555555555, N
452753, 1257.6472222222221, N
453120, 1258.6666666666667, N
453493, 1259.7027777777778, N
453866, 1260.7388888888888, N
454246, 1261.7944444444445, N
454619, 1262.8305555555555, N
454987, 1263.8527777777779, N
455359, 1264.8861111111112, N
455734, 1265.9277777777777, N
456110, 1266.9722222222222, N
456491, 1268.0305555555556, N
456865, 1269.0694444444443, N
457242, 1270.1166666666666, N
457616, 1271.1555555555556, N
457983, 1272.175, N
458351, 1273.1972222222223, N
458728, 1274.2444444444445, N
459100, 1275.2777777777778, N
459478, 1276.3277777777778, N
459852, 1277.3666666666666, N
460231, 1278.4194444444445, N
460610, 1279.4722222222222, N
460989, 1280.525, N
461363, 1281.5638888888889, N
461730, 1282.5833333333333, N
462102, 1283.6166666666666, N
462479, 1284.6638888888888, N
462849, 1285.6916666666666, N
463212, 1286.7, N
463583, 1287.7305555555556, N
463941, 1288.725, N
464302, 1289.7277777777779, N
464661, 1290.725, N
465023, 1291.7305555555556, N
465389, 1292.7472222222223, N
465762, 1293.7833333333333, N
466124, 1294.7888888888888, N
466493, 1295.8138888888889, N
466865, 1296.8472222222222, N
467231, 1297.8638888888888, N
467604, 1298.9, N
467967, 1299.9083333333333, N
468332, 1300.9222222222222, N
468705, 1301.9583333333333, N
469070, 1302.9722222222222, N
469432, 1303.9777777777779, N
469800, 1305.0, N
470165, 1306.013888888889, N
470522, 1307.0055555555555, N
470881, 1308.0027777777777, N
471246, 1309.0166666666667, N
471614, 1310.0388888888888, N
471972, 1311.0333333333333, N
472327, 1312.0194444444444, N
472692, 1313.0333333333333, N
473042, 1314.0055555555555, N
473381, 1314.9472222222223, N
473740, 1315.9444444444443, N
474091, 1316.9194444444445, N
474458, 1317.9388888888889, N
474827, 1318.963888888889, N
475192, 1319.9777777777779, N
475570, 1321.0277777777778, N
475955, 1322.0972222222222, N
476333, 1323.1472222222221, N
476714, 1324.2055555555555, N
477096, 1325.2666666666667, N
477482, 1326.338888888889, N
477873, 1327.425, N
478253, 1328.4805555555556, N
478645, 1329.5694444444443, N
479041, 1330.6694444444445, N
479424, 1331.7333333333333, N
479805, 1332.7916666666667, N
480186, 1333.85, N
480567, 1334.9083333333333, N
480952, 1335.9777777777779, N
481318, 1336.9944444444445, N
481701, 1338.0583333333334, N
482083, 1339.1194444444445, N
482466, 1340.1833333333334, N
482837, 1341.213888888889, N
483208, 1342.2444444444445, N
483587, 1343.2972222222222, N
483964, 1344.3444444444444, N
484335, 1345.375, N
484711, 1346.4194444444445, N
485098, 1347.4944444444445, N
485479, 1348.5527777777777, N
485852, 1349.588888888889, N
486233, 1350.6472222222221, N
486615, 1351.7083333333333, N
487003, 1352.786111111111, N
487369, 1353.8027777777777, N
487745, 1354.8472222222222, N
488123, 1355.8972222222221, N
488499, 1356.9416666666666, N
488870, 1357.9722222222222, N
489236, 1358.9888888888888, N
489591, 1359.975, N
489963, 1361.0083333333334, N
490326, 1362.0166666666667, N
490684, 1363.0111111111112, N
491058, 1364.05, N
491429, 1365.0805555555555, N
491800, 1366.111111111111, N
492181, 1367.1694444444445, N
492559, 1368.2194444444444, N
492932, 1369.2555555555555, N
493304, 1370.2888888888888, N
493674, 1371.3166666666666, N
494054, 1372.3722222222223, N
494421, 1373.3916666666667, N
494793, 1374.425, N
495173, 1375.4805555555556, N
495544, 1376.5111111111112, N
495917, 1377.5472222222222, N
496295, 1378.5972222222222, N
496666, 1379.6277777777777, N
497038, 1380.661111111111, N
497406, 1381.6833333333334, N
497762, 1382.6722222222222, N
498125, 1383.6805555555557, N
498484, 1384.6777777777777, N
498853, 1385.7027777777778, N
499225, 1386.736111111111, N
499597, 1387.7694444444444, N
499974, 1388.8166666666666, N
500349, 1389.8583333333333, N
500713, 1390.8694444444445, N
501093, 1391.925, N
501476, 1392.9888888888888, N
501855, 1394.0416666666667, N
502241, 1395.1138888888888, N
502616, 1396.1555555555556, N
502996, 1397.2111111111112, N
503383, 1398.286111111111, N
503766, 1399.35, N
504149, 1400.4138888888888, N
504533, 1401.4805555555556, N
504920, 1402.5555555555557, N
505303, 1403.6194444444445, N
505678, 1404.661111111111, N
506059, 1405.7194444444444, N
506438, 1406.7722222222221, N
506819, 1407.8305555555555, N
507203, 1408.8972222222221, N
507580, 1409.9444444444443, N
507961, 1411.0027777777777, N
508337, 1412.0472222222222, N
508709, 1413.0805555555555, N
509087, 1414.1305555555555, N
509472, 1415.2, N
509855, 1416.263888888889, N
510243, 1417.3416666666667, N
510624, 1418.4, N
511002, 1419.45, N
511377, 1420.4916666666666, N
511749, 1421.525, N
512126, 1422.5722222222223, N
512507, 1423.6305555555555, N
512885, 1424.6805555555557, N
513259, 1425.7194444444444, N
513639, 1426.775, N
514024, 1427.8444444444444, N
514403, 1428.8972222222221, N
514775, 1429.9305555555557, N
515145, 1430.9583333333333, N
515518, 1431.9944444444445, N
515877, 1432.9916666666666, N
516240, 1434.0, N
516605, 1435.013888888889, N
516972, 1436.0333333333333, N
517341, 1437.0583333333334, N
517710, 1438.0833333333333, N
518062, 1439.0611111111111, N
518431, 1440.0861111111112, N
518799, 1441.1083333333333, N
519168, 1442.1333333333334, N
519545, 1443.1805555555557, N
519921, 1444.225, N
520299, 1445.275, N
520673, 1446.3138888888889, N
521042, 1447.338888888889, N
521389, 1448.3027777777777, N
521741, 1449.2805555555556, N
522111, 1450.3083333333334, N
522478, 1451.3277777777778, N
522844, 1452.3444444444444, N
523214, 1453.3722222222223, N
523594, 1454.4277777777777, N
523971, 1455.475, N
524352, 1456.5333333333333, N
524731, 1457.5861111111112, N
525113, 1458.6472222222221, N
525492, 1459.7, N
525871, 1460.7527777777777, N
526249, 1461.8027777777777, N
526625, 1462.8472222222222, N
526992, 1463.8666666666666, N
527361, 1464.8916666666667, N
527736, 1465.9333333333334, N
528100, 1466.9444444444443, N
528454, 1467.9277777777777, N
528815, 1468.9305555555557, N
529183, 1469.9527777777778, N
529552, 1470.9777777777779, N
529918, 1471.9944444444445, N
530282, 1473.0055555555555, N
530652, 1474.0333333333333, N
531015, 1475.0416666666667, N
531345, 1475.9583333333333, N
531681, 1476.8916666666667, N
532011, 1477.8083333333334, N
532336, 1478.7111111111112, N
532667, 1479.6305555555555, N
532991, 1480.5305555555556, N
533310, 1481.4166666666667, N
533644, 1482.3444444444444, N
533973, 1483.2583333333334, N
534306, 1484.1833333333334, N
534644, 1485.1222222222223, N
534976, 1486.0444444444445, N
535304, 1486.9555555555555, N
535641, 1487.8916666666667, N
535975, 1488.8194444444443, N
536307, 1489.7416666666666, N
536651, 1490.6972222222223, N
536983, 1491.6194444444445, N
537319, 1492.5527777777777, N
537657, 1493.4916666666666, N
537992, 1494.4222222222222, N
538340, 1495.388888888889, N
538695, 1496.375, N
539039, 1497.3305555555555, N
539379, 1498.275, N
539733, 1499.2583333333334, N
540077, 1500.213888888889, N
540415, 1501.1527777777778, N
540764, 1502.1222222222223, N
541113, 1503.0916666666667, N
541465, 1504.0694444444443, N
541816, 1505.0444444444445, N
542168, 1506.0222222222221, N
542517, 1506.9916666666666, N
542879, 1507.9972222222223, N
543238, 1508.9944444444445, N
543593, 1509.9805555555556, N
543952, 1510.9777777777779, N
544308, 1511.9666666666667, N
544676, 1512.9888888888888, N
545034, 1513.9833333333333, N
545385, 1514.9583333333333, N
545741, 1515.9472222222223, N
546089, 1516.9138888888888, N
546441, 1517.8916666666667, N
546791, 1518.8638888888888, N
547140, 1519.8333333333333, N
547493, 1520.8138888888889, N
547846, 1521.7944444444445, N
548191, 1522.7527777777777, N
548537, 1523.713888888889, N
548894, 1524.7055555555555, N
549243, 1525.675, N
549578, 1526.6055555555556, N
549919, 1527.5527777777777, N
550255, 1528.486111111111, N
550584, 1529.4, N
550923, 1530.3416666666667, N
551250, 1531.25, N
551575, 1532.1527777777778, N
551906, 1533.0722222222223, N
552232, 1533.9777777777779, N
552550, 1534.861111111111, N
552873, 1535.7583333333334, N
553194, 1536.65, N
553511, 1537.5305555555556, N
553833, 1538.425, N
554148, 1539.3, N
554456, 1540.1555555555556, N
554769, 1541.025, N
555088, 1541.911111111111, N
555393, 1542.7583333333334, N
555695, 1543.5972222222222, N
556006, 1544.4611111111112, N
556311, 1545.3083333333334, N
556476, 1545.7666666666667, ~
556613, 1546.1472222222221, N
556917, 1546.9916666666666, N
557214, 1547.8166666666666, N
557506, 1548.6277777777777, N
557796, 1549.4333333333334, N
558091, 1550.2527777777777, N
558374, 1551.0388888888888, N
558651, 1551.8083333333334, N
558798, 1552.2166666666667, ~
558932, 1552.588888888889, N
559209, 1553.3583333333333, N
559315, 1553.6527777777778, ~
559483, 1554.1194444444445, N
559758, 1554.8833333333334, N
560036, 1555.6555555555556, N
560307, 1556.4083333333333, N
560582, 1557.1722222222222, N
560858, 1557.9388888888889, N
561137, 1558.713888888889, N
561411, 1559.475, N
561687, 1560.2416666666666, N
561957, 1560.9916666666666, N
562123, 1561.4527777777778, ~
562236, 1561.7666666666667, N
562511, 1562.5305555555556, N
562564, 1562.6777777777777, ~
562789, 1563.3027777777777, N
563072, 1564.088888888889, N
563349, 1564.8583333333333, N
563629, 1565.6361111111112, N
563905, 1566.4027777777778, N
564189, 1567.1916666666666, N
564466, 1567.9611111111112, N
564744, 1568.7333333333333, N
564871, 1569.0861111111112, ~
565016, 1569.4888888888888, N
565291, 1570.2527777777777, N
565562, 1571.0055555555555, N
565829, 1571.7472222222223, N
566100, 1572.5, N
566368, 1573.2444444444445, N
566632, 1573.9777777777779, N
566894, 1574.7055555555555, N
567167, 1575.463888888889, N
567431, 1576.1972222222223, N
567701, 1576.9472222222223, N
567965, 1577.6805555555557, N
568239, 1578.4416666666666, N
568510, 1579.1944444444443, N
568785, 1579.9583333333333, N
569063, 1580.7305555555556, N
569345, 1581.513888888889, N
569620, 1582.2777777777778, N
569895, 1583.0416666666667, N
570177, 1583.825, N
570460, 1584.611111111111, N
570744, 1585.4, N
571022, 1586.1722222222222, N
571313, 1586.9805555555556, N
571599, 1587.775, N
571884, 1588.5666666666666, N
572177, 1589.3805555555555, N
572466, 1590.1833333333334, N
572749, 1590.9694444444444, N
573034, 1591.7611111111112, N
573326, 1592.5722222222223, N
573604, 1593.3444444444444, N
573886, 1594.1277777777777, N
574163, 1594.8972222222221, N
574437, 1595.6583333333333, N
574714, 1596.4277777777777, N
574990, 1597.1944444444443, N
575268, 1597.9666666666667, N
575540, 1598.7222222222222, N
575815, 1599.486111111111, N
576087, 1600.2416666666666, N
576369, 1601.025, N
576649, 1601.8027777777777, N
576925, 1602.5694444444443, N
577205, 1603.3472222222222, N
577484, 1604.1222222222223, N
577764, 1604.9, N
578045, 1605.6805555555557, N
578331, 1606.475, N
578609, 1607.2472222222223, N
578888, 1608.0222222222221, N
579171, 1608.8083333333334, N
579453, 1609.5916666666667, N
579735, 1610.375, N
580012, 1611.1444444444444, N
580291, 1611.9194444444445, N
580570, 1612.6944444444443, N
580847, 1613.463888888889, N
581123, 1614.2305555555556, N
581405, 1615.013888888889, N
581676, 1615.7666666666667, N
581949, 1616.525, N
582222, 1617.2833333333333, N
582497, 1618.0472222222222, N
582766, 1618.7944444444445, N
583028, 1619.5222222222221, N
583293, 1620.2583333333334, N
583557, 1620.9916666666666, N
583819, 1621.7194444444444, N
584081, 1622.4472222222223, N
584344, 1623.1777777777777, N
584605, 1623.9027777777778, N
584868, 1624.6333333333334, N
585124, 1625.3444444444444, N
585395, 1626.0972222222222, N
585652, 1626.8111111111111, N
585918, 1627.55, N
586176, 1628.2666666666667, N
586448, 1629.0222222222221, N
586715, 1629.763888888889, N
586984, 1630.5111111111112, N
587256, 1631.2666666666667, N
587534, 1632.0388888888888, N
587809, 1632.8027777777777, N
588078, 1633.55, N
588360, 1634.3333333333333, N
588638, 1635.1055555555556, N
588916, 1635.8777777777777, N
589190, 1636.638888888889, N
589479, 1637.4416666666666, N
589763, 1638.2305555555556, N
590051, 1639.0305555555556, N
590342, 1639.838888888889, N
590632, 1640.6444444444444, N
590919, 1641.4416666666666, N
591204, 1642.2333333333333, N
591499, 1643.0527777777777, N
591778, 1643.8277777777778, N
592063, 1644.6194444444445, N
592340, 1645.388888888889, N
592626, 1646.1833333333334, N
592913, 1646.9805555555556, N
593198, 1647.7722222222221, N
593495, 1648.5972222222222, N
593779, 1649.3861111111112, N
594072, 1650.2, N
594366, 1651.0166666666667, N
594667, 1651.8527777777779, N
594965, 1652.6805555555557, N
595252, 1653.4777777777779, N
595291, 1653.5861111111112, ~
595542, 1654.2833333333333, N
595840, 1655.111111111111, N
596129, 1655.9138888888888, N
596429, 1656.7472222222223, N
596543, 1657.0638888888889, ~
596728, 1657.5777777777778, N
597028, 1658.411111111111, N
597328, 1659.2444444444445, N
597638, 1660.1055555555556, N
597941, 1660.9472222222223, N
598240, 1661.7777777777778, N
598537, 1662.6027777777779, N
598838, 1663.4388888888889, N
599139, 1664.275, N
599448, 1665.1333333333334, N
599759, 1665.9972222222223, N
600057, 1666.825, N
600361, 1667.6694444444445, N
600679, 1668.5527777777777, N
600988, 1669.411111111111, N
601293, 1670.2583333333334, N
601599, 1671.1083333333333, N
601905, 1671.9583333333333, N
602209, 1672.8027777777777, N
602522, 1673.6722222222222, N
602830, 1674.5277777777778, N
603138, 1675.3833333333334, N
603442, 1676.2277777777779, N
603764, 1677.1222222222223, N
604078, 1677.9944444444445, N
604384, 1678.8444444444444, N
604692, 1679.7, N
605004, 1680.5666666666666, N
605319, 1681.4416666666666, N
605639, 1682.3305555555555, N
605948, 1683.1888888888889, N
606260, 1684.0555555555557, N
606572, 1684.9222222222222, N
606888, 1685.8, N
607200, 1686.6666666666667, N
607507, 1687.5194444444444, N
607821, 1688.3916666666667, N
608122, 1689.2277777777779, N
608431, 1690.0861111111112, N
608740, 1690.9444444444443, N
609048, 1691.8, N
609360, 1692.6666666666667, N
609673, 1693.536111111111, N
609989, 1694.4138888888888, N
610292, 1695.2555555555555, N
610590, 1696.0833333333333, N
610898, 1696.9388888888889, N
611197, 1697.7694444444444, N
611496, 1698.6, N
611802, 1699.45, N
612104, 1700.2888888888888, N
612405, 1701.125, N
612711, 1701.975, N
613015, 1702.8194444444443, N
613316, 1703.6555555555556, N
613609, 1704.4694444444444, N
613908, 1705.3, N
614203, 1706.1194444444445, N
614501, 1706.9472222222223, N
614801, 1707.7805555555556, N
615099, 1708.6083333333333, N
615392, 1709.4222222222222, N
615689, 1710.2472222222223, N
615997, 1711.1027777777779, N
616299, 1711.9416666666666, N
616596, 1712.7666666666667, N
616906, 1713.6277777777777, N
617207, 1714.463888888889, N
617511, 1715.3083333333334, N
617820, 1716.1666666666667, N
618126, 1717.0166666666667, N
618432, 1717.8666666666666, N
618733, 1718.7027777777778, N
619045, 1719.5694444444443, N
619354, 1720.4277777777777, N
619657, 1721.2694444444444, N
619971, 1722.1416666666667, N
620276, 1722.9888888888888, N
620586, 1723.85, N
620900, 1724.7222222222222, N
621215, 1725.5972222222222, N
621525, 1726.4583333333333, N
621845, 1727.3472222222222, N
622162, 1728.2277777777779, N
622476, 1729.1, N
622781, 1729.9472222222223, N
623091, 1730.8083333333334, N
623396, 1731.6555555555556, N
623701, 1732.5027777777777, N
624005, 1733.3472222222222, N
624305, 1734.1805555555557, N
624608, 1735.0222222222221, N
624917, 1735.8805555555555, N
625225, 1736.736111111111, N
625536, 1737.6, N
625842, 1738.45, N
626159, 1739.3305555555555, N
626471, 1740.1972222222223, N
626789, 1741.0805555555555, N
627103, 1741.9527777777778, N
627413, 1742.8138888888889, N
627714, 1743.65, N
628031, 1744.5305555555556, N
628342, 1745.3944444444444, N
628651, 1746.2527777777777, N
628697, 1746.3805555555555, ~
628963, 1747.1194444444445, N
629271, 1747.975, N
629412, 1748.3666666666666, ~
629582, 1748.838888888889, N
629901, 1749.725, N
630212, 1750.588888888889, N
630522, 1751.45, N
630828, 1752.3, N
631141, 1753.1694444444445, N
631449, 1754.025, N
631749, 1754.8583333333333, N
632051, 1755.6972222222223, N
632353, 1756.536111111111, N
632658, 1757.3833333333334, N
632962, 1758.2277777777779, N
633271, 1759.0861111111112, N
633571, 1759.9194444444445, N
633871, 1760.7527777777777, N
634184, 1761.6222222222223, N
634485, 1762.4583333333333, N
634771, 1763.2527777777777, N
635052, 1764.0333333333333, N
635348, 1764.8555555555556, N
635637, 1765.6583333333333, N
635926, 1766.4611111111112, N
636217, 1767.2694444444444, N
636503, 1768.0638888888889, N
636791, 1768.8638888888888, N
637084, 1769.6777777777777, N
637377, 1770.4916666666666, N
637671, 1771.3083333333334, N
637956, 1772.1, N
638252, 1772.9222222222222, N
638543, 1773.7305555555556, N
638836, 1774.5444444444445, N
639136, 1775.3777777777777, N
639431, 1776.1972222222223, N
639729, 1777.025, N
640029, 1777.8583333333333, N
640332, 1778.7, N
640633, 1779.536111111111, N
640929, 1780.3583333333333, N
641233, 1781.2027777777778, N
641535, 1782.0416666666667, N
641840, 1782.888888888889, N
642150, 1783.75, N
642457, 1784.6027777777779, N
642763, 1785.4527777777778, N
643069, 1786.3027777777777, N
643381, 1787.1694444444445, N
643685, 1788.013888888889, N
643979, 1788.8305555555555, N
644285, 1789.6805555555557, N
644583, 1790.5083333333334, N
644873, 1791.3138888888889, N
645172, 1792.1444444444444, N
645469, 1792.9694444444444, N
645756, 1793.7666666666667, N
646047, 1794.575, N
646348, 1795.411111111111, N
646634, 1796.2055555555555, N
646932, 1797.0333333333333, N
647226, 1797.85, N
647518, 1798.661111111111, N
647817, 1799.4916666666666, N
648112, 1800.3111111111111, N
648405, 1801.125, N
648705, 1801.9583333333333, N
648996, 1802.7666666666667, N
649287, 1803.575, N
649587, 1804.4083333333333, N
649878, 1805.2166666666667, N
