17, 0.04722222222222222, +
93, 0.25833333333333336, N
326, 0.9055555555555556, N
561, 1.5583333333333333, N
798, 2.216666666666667, N
1017, 2.825, N
1253, 3.4805555555555556, N
1488, 4.133333333333334, N
1730, 4.805555555555555, N
1967, 5.463888888888889, N
2208, 6.133333333333334, N
2448, 6.8, N
2692, 7.477777777777778, N
2935, 8.152777777777779, N
3184, 8.844444444444445, N
3435, 9.541666666666666, N
3686, 10.238888888888889, N
3935, 10.930555555555555, N
4182, 11.616666666666667, N
4427, 12.297222222222222, N
4682, 13.005555555555556, N
4933, 13.702777777777778, N
5183, 14.397222222222222, N
5425, 15.069444444444445, N
5678, 15.772222222222222, N
5929, 16.469444444444445, N
6178, 17.16111111111111, N
6417, 17.825, N
6680, 18.555555555555557, N
6926, 19.238888888888887, N
7164, 19.9, N
7406, 20.572222222222223, N
7659, 21.275, N
7904, 21.955555555555556, N
8149, 22.636111111111113, N
8377, 23.269444444444446, N
8618, 23.93888888888889, N
8860, 24.61111111111111, N
9097, 25.269444444444446, N
9332, 25.92222222222222, N
9571, 26.586111111111112, N
9817, 27.269444444444446, N
10058, 27.93888888888889, N
10298, 28.605555555555554, N
10534, 29.261111111111113, N
10786, 29.961111111111112, N
11033, 30.647222222222222, N
11278, 31.32777777777778, N
11528, 32.022222222222226, N
11778, 32.71666666666667, N
12030, 33.416666666666664, N
12280, 34.111111111111114, N
12538, 34.827777777777776, N
12793, 35.53611111111111, N
13045, 36.236111111111114, N
13295, 36.93055555555556, N
13553, 37.647222222222226, N
13805, 38.34722222222222, N
14055, 39.041666666666664, N
14301, 39.725, N
14554, 40.42777777777778, N
14804, 41.12222222222222, N
15052, 41.81111111111111, N
15305, 42.513888888888886, N
15560, 43.22222222222222, N
15810, 43.916666666666664, N
16060, 44.611111111111114, N
16310, 45.30555555555556, N
16564, 46.01111111111111, N
16819, 46.71944444444444, N
17073, 47.425, N
17319, 48.108333333333334, N
17572, 48.81111111111111, N
17826, 49.516666666666666, N
18079, 50.21944444444444, N
18334, 50.92777777777778, N
18596, 51.65555555555556, N
18857, 52.38055555555555, N
19112, 53.08888888888889, N
19358, 53.772222222222226, N
19630, 54.52777777777778, N
19884, 55.233333333333334, N
20145, 55.958333333333336, N
20400, 56.666666666666664, N
20662, 57.394444444444446, N
20905, 58.06944444444444, N
21164, 58.78888888888889, N
21420, 59.5, N
21676, 60.21111111111111, N
21913, 60.86944444444445, N
22157, 61.547222222222224, N
22406, 62.23888888888889, N
22658, 62.93888888888889, N
22902, 63.61666666666667, N
23144, 64.28888888888889, N
23380, 64.94444444444444, N
23634, 65.65, N
23879, 66.33055555555555, N
24129, 67.025, N
24376, 67.71111111111111, N
24625, 68.40277777777777, N
24875, 69.09722222222223, N
25125, 69.79166666666667, N
25376, 70.4888888888889, N
25632, 71.2, N
25879, 71.8861111111111, N
26128, 72.57777777777778, N
26374, 73.2611111111111, N
26625, 73.95833333333333, N
26871, 74.64166666666667, N
27113, 75.31388888888888, N
27360, 76.0, N
27612, 76.7, N
27858, 77.38333333333334, N
28106, 78.07222222222222, N
28360, 78.77777777777777, N
28614, 79.48333333333333, N
28868, 80.18888888888888, N
29122, 80.89444444444445, N
29378, 81.60555555555555, N
29632, 82.31111111111112, N
29889, 83.025, N
30145, 83.73611111111111, N
30403, 84.45277777777778, N
30659, 85.16388888888889, N
30902, 85.83888888888889, N
31149, 86.525, N
31402, 87.22777777777777, N
31653, 87.925, N
31904, 88.62222222222222, N
32140, 89.27777777777777, N
32386, 89.96111111111111, N
32640, 90.66666666666667, N
32888, 91.35555555555555, N
33139, 92.05277777777778, N
33394, 92.7611111111111, N
33636, 93.43333333333334, N
33887, 94.13055555555556, N
34136, 94.82222222222222, N
34392, 95.53333333333333, N
34631, 96.19722222222222, N
34872, 96.86666666666666, N
35112, 97.53333333333333, N
35361, 98.225, N
35601, 98.89166666666667, N
35842, 99.56111111111112, N
36076, 100.21111111111111, N
36315, 100.875, N
36565, 101.56944444444444, N
36808, 102.24444444444444, N
37055, 102.93055555555556, N
37307, 103.63055555555556, N
37556, 104.32222222222222, N
37800, 105.0, N
38049, 105.69166666666666, N
38302, 106.39444444444445, N
38552, 107.08888888888889, N
38804, 107.78888888888889, N
39057, 108.49166666666666, N
39323, 109.23055555555555, N
39582, 109.95, N
39840, 110.66666666666667, N
40096, 111.37777777777778, N
40359, 112.10833333333333, N
40613, 112.81388888888888, N
40873, 113.53611111111111, N
41128, 114.24444444444444, N
41391, 114.975, N
41645, 115.68055555555556, N
41904, 116.4, N
42161, 117.1138888888889, N
42419, 117.83055555555555, N
42675, 118.54166666666667, N
42931, 119.25277777777778, N
43195, 119.98611111111111, N
43454, 120.70555555555555, N
43713, 121.425, N
43967, 122.13055555555556, N
44234, 122.87222222222222, N
44501, 123.6138888888889, N
44775, 124.375, N
45042, 125.11666666666666, N
45309, 125.85833333333333, N
45575, 126.59722222222223, N
45836, 127.32222222222222, N
46102, 128.0611111111111, N
46364, 128.7888888888889, N
46621, 129.50277777777777, N
46873, 130.20277777777778, N
47135, 130.93055555555554, N
47392, 131.64444444444445, N
47644, 132.34444444444443, N
47895, 133.04166666666666, N
48157, 133.76944444444445, N
48408, 134.46666666666667, N
48659, 135.1638888888889, N
48907, 135.8527777777778, N
49161, 136.55833333333334, N
49406, 137.23888888888888, N
49660, 137.94444444444446, N
49905, 138.625, N
50157, 139.325, N
50403, 140.00833333333333, N
50646, 140.68333333333334, N
50899, 141.38611111111112, N
51151, 142.0861111111111, N
51400, 142.77777777777777, N
51643, 143.45277777777778, N
51883, 144.11944444444444, N
52138, 144.82777777777778, N
52383, 145.50833333333333, N
52628, 146.1888888888889, N
52867, 146.8527777777778, N
53114, 147.5388888888889, N
53350, 148.19444444444446, N
53596, 148.87777777777777, N
53844, 149.56666666666666, N
54095, 150.26388888888889, N
54342, 150.95, N
54586, 151.62777777777777, N
54837, 152.325, N
55094, 153.0388888888889, N
55342, 153.7277777777778, N
55594, 154.42777777777778, N
55836, 155.1, N
56083, 155.7861111111111, N
56329, 156.46944444444443, N
56577, 157.15833333333333, N
56828, 157.85555555555555, N
57082, 158.5611111111111, N
57333, 159.25833333333333, N
57585, 159.95833333333334, N
57841, 160.66944444444445, N
58109, 161.4138888888889, N
58372, 162.14444444444445, N
58635, 162.875, N
58891, 163.5861111111111, N
59161, 164.3361111111111, N
59427, 165.075, N
59697, 165.825, N
59971, 166.5861111111111, N
60236, 167.32222222222222, N
60492, 168.03333333333333, N
60750, 168.75, N
61016, 169.48888888888888, N
61275, 170.20833333333334, N
61534, 170.92777777777778, N
61783, 171.61944444444444, N
62056, 172.37777777777777, N
62322, 173.11666666666667, N
62591, 173.86388888888888, N
62861, 174.61388888888888, N
63125, 175.34722222222223, N
63385, 176.06944444444446, N
63647, 176.79722222222222, N
63913, 177.5361111111111, N
64182, 178.28333333333333, N
64454, 179.0388888888889, N
64724, 179.7888888888889, N
65006, 180.57222222222222, N
65298, 181.38333333333333, N
65598, 182.21666666666667, N
65910, 183.08333333333334, N
66227, 183.9638888888889, N
66536, 184.82222222222222, N
66861, 185.725, N
67190, 186.63888888888889, N
67502, 187.50555555555556, N
67805, 188.34722222222223, N
68106, 189.18333333333334, N
68394, 189.98333333333332, N
68674, 190.76111111111112, N
68951, 191.53055555555557, N
69226, 192.29444444444445, N
69502, 193.0611111111111, N
69769, 193.80277777777778, N
70039, 194.55277777777778, N
70305, 195.29166666666666, N
70573, 196.0361111111111, N
70837, 196.76944444444445, N
71104, 197.51111111111112, N
71359, 198.21944444444443, N
71617, 198.9361111111111, N
71878, 199.6611111111111, N
72138, 200.38333333333333, N
72393, 201.09166666666667, N
72642, 201.78333333333333, N
72896, 202.48888888888888, N
73148, 203.1888888888889, N
73402, 203.89444444444445, N
73647, 204.575, N
73904, 205.2888888888889, N
74148, 205.96666666666667, N
74394, 206.65, N
74645, 207.34722222222223, N
74899, 208.05277777777778, N
75146, 208.73888888888888, N
75394, 209.42777777777778, N
75638, 210.10555555555555, N
75893, 210.8138888888889, N
76138, 211.49444444444444, N
76391, 212.19722222222222, N
76630, 212.86111111111111, N
76877, 213.54722222222222, N
77123, 214.23055555555555, N
77370, 214.91666666666666, N
77618, 215.60555555555555, N
77873, 216.3138888888889, N
78117, 216.99166666666667, N
78366, 217.68333333333334, N
78611, 218.36388888888888, N
78872, 219.0888888888889, N
79123, 219.7861111111111, N
79379, 220.49722222222223, N
79630, 221.19444444444446, N
79891, 221.91944444444445, N
80150, 222.63888888888889, N
80409, 223.35833333333332, N
80672, 224.0888888888889, N
80930, 224.80555555555554, N
81184, 225.51111111111112, N
81438, 226.21666666666667, N
81701, 226.94722222222222, N
81954, 227.65, N
82213, 228.36944444444444, N
82462, 229.0611111111111, N
82719, 229.775, N
82969, 230.46944444444443, N
83220, 231.16666666666666, N
83474, 231.87222222222223, N
83731, 232.5861111111111, N
83978, 233.2722222222222, N
84227, 233.9638888888889, N
84475, 234.65277777777777, N
84732, 235.36666666666667, N
84982, 236.0611111111111, N
85236, 236.76666666666668, N
85480, 237.44444444444446, N
85736, 238.15555555555557, N
85990, 238.86111111111111, N
86243, 239.5638888888889, N
86502, 240.28333333333333, N
86759, 240.99722222222223, N
87012, 241.7, N
87260, 242.38888888888889, N
87520, 243.11111111111111, N
87779, 243.83055555555555, N
88036, 244.54444444444445, N
88287, 245.24166666666667, N
88546, 245.9611111111111, N
88802, 246.67222222222222, N
89059, 247.38611111111112, N
89318, 248.10555555555555, N
89582, 248.8388888888889, N
89842, 249.5611111111111, N
90105, 250.29166666666666, N
90370, 251.02777777777777, N
90639, 251.775, N
90900, 252.5, N
91167, 253.24166666666667, N
91428, 253.96666666666667, N
91693, 254.70277777777778, N
91953, 255.425, N
92212, 256.14444444444445, N
92473, 256.86944444444447, N
92737, 257.60277777777776, N
92996, 258.3222222222222, N
93252, 259.03333333333336, N
93519, 259.775, N
93784, 260.5111111111111, N
94049, 261.2472222222222, N
94311, 261.975, N
94584, 262.73333333333335, N
94847, 263.4638888888889, N
95117, 264.2138888888889, N
95389, 264.96944444444443, N
95664, 265.73333333333335, N
95929, 266.46944444444443, N
96195, 267.2083333333333, N
96465, 267.9583333333333, N
96727, 268.68611111111113, N
96992, 269.4222222222222, N
97247, 270.13055555555553, N
97506, 270.85, N
97762, 271.56111111111113, N
98026, 272.2944444444444, N
98285, 273.0138888888889, N
98547, 273.7416666666667, N
98800, 274.44444444444446, N
99056, 275.15555555555557, N
99310, 275.8611111111111, N
99578, 276.60555555555555, N
99833, 277.31388888888887, N
100087, 278.01944444444445, N
100339, 278.71944444444443, N
100597, 279.43611111111113, N
100849, 280.1361111111111, N
101098, 280.8277777777778, N
101353, 281.5361111111111, N
101604, 282.23333333333335, N
101857, 282.93611111111113, N
102117, 283.65833333333336, N
102392, 284.4222222222222, N
102672, 285.2, N
102967, 286.01944444444445, N
103257, 286.825, N
103552, 287.64444444444445, N
103834, 288.4277777777778, N
104122, 289.22777777777776, N
104406, 290.01666666666665, N
104686, 290.7944444444444, N
104956, 291.5444444444444, N
105223, 292.2861111111111, N
105502, 293.06111111111113, N
105775, 293.81944444444446, N
106047, 294.575, N
106310, 295.30555555555554, N
106590, 296.0833333333333, N
106867, 296.85277777777776, N
107144, 297.6222222222222, N
107425, 298.40277777777777, N
107702, 299.1722222222222, N
107973, 299.925, N
108246, 300.68333333333334, N
108519, 301.44166666666666, N
108779, 302.1638888888889, N
109046, 302.90555555555557, N
109306, 303.6277777777778, N
109573, 304.36944444444447, N
109839, 305.10833333333335, N
110111, 305.8638888888889, N
110387, 306.63055555555553, N
110664, 307.4, N
110937, 308.15833333333336, N
111205, 308.90277777777777, N
111488, 309.68888888888887, N
111763, 310.4527777777778, N
112031, 311.1972222222222, N
112292, 311.9222222222222, N
112560, 312.6666666666667, N
112826, 313.40555555555557, N
113090, 314.1388888888889, N
113358, 314.8833333333333, N
113613, 315.59166666666664, N
113870, 316.30555555555554, N
114125, 317.0138888888889, N
114393, 317.7583333333333, N
114645, 318.4583333333333, N
114897, 319.15833333333336, N
115145, 319.84722222222223, N
115403, 320.56388888888887, N
115650, 321.25, N
115904, 321.9555555555556, N
116150, 322.6388888888889, N
116402, 323.3388888888889, N
116647, 324.01944444444445, N
116894, 324.7055555555556, N
117140, 325.3888888888889, N
117383, 326.06388888888887, N
117623, 326.73055555555555, N
117869, 327.4138888888889, N
118105, 328.06944444444446, N
118350, 328.75, N
118584, 329.4, N
118821, 330.05833333333334, N
119067, 330.7416666666667, N
119315, 331.43055555555554, N
119553, 332.09166666666664, N
119795, 332.7638888888889, N
120030, 333.4166666666667, N
120287, 334.13055555555553, N
120535, 334.81944444444446, N
120785, 335.5138888888889, N
121029, 336.19166666666666, N
121285, 336.90277777777777, N
121537, 337.60277777777776, N
121792, 338.31111111111113, N
122051, 339.03055555555557, N
122312, 339.75555555555553, N
122570, 340.47222222222223, N
122827, 341.18611111111113, N
123092, 341.9222222222222, N
123351, 342.64166666666665, N
123615, 343.375, N
123870, 344.0833333333333, N
124134, 344.81666666666666, N
124401, 345.55833333333334, N
124669, 346.3027777777778, N
124937, 347.0472222222222, N
125204, 347.7888888888889, N
125465, 348.5138888888889, N
125730, 349.25, N
125998, 349.99444444444447, N
126265, 350.7361111111111, N
126530, 351.47222222222223, N
126790, 352.19444444444446, N
127061, 352.9472222222222, N
127323, 353.675, N
127581, 354.39166666666665, N
127848, 355.1333333333333, N
128119, 355.8861111111111, N
128381, 356.6138888888889, N
128640, 357.3333333333333, N
128906, 358.0722222222222, N
129176, 358.8222222222222, N
129435, 359.5416666666667, N
129693, 360.2583333333333, N
129951, 360.975, N
130210, 361.69444444444446, N
130464, 362.4, N
130722, 363.1166666666667, N
130982, 363.8388888888889, N
131239, 364.5527777777778, N
131494, 365.2611111111111, N
131744, 365.9555555555556, N
132004, 366.6777777777778, N
132258, 367.3833333333333, N
132513, 368.09166666666664, N
132758, 368.77222222222224, N
133009, 369.46944444444443, N
133260, 370.1666666666667, N
133508, 370.85555555555555, N
133754, 371.5388888888889, N
134007, 372.2416666666667, N
134245, 372.90277777777777, N
134489, 373.5805555555556, N
134728, 374.24444444444447, N
134978, 374.93888888888887, N
135209, 375.5805555555556, N
135444, 376.23333333333335, N
135673, 376.86944444444447, N
135918, 377.55, N
136146, 378.18333333333334, N
136383, 378.84166666666664, N
136610, 379.47222222222223, N
136843, 380.11944444444447, N
137044, 380.6777777777778, |
137085, 380.7916666666667, N
137246, 381.2388888888889, |
137319, 381.44166666666666, N
137548, 382.0777777777778, N
137778, 382.71666666666664, N
138013, 383.36944444444447, N
138242, 384.00555555555553, N
138473, 384.64722222222224, N
138693, 385.2583333333333, N
138923, 385.89722222222224, N
139152, 386.53333333333336, N
139373, 387.14722222222224, N
139595, 387.7638888888889, N
139823, 388.39722222222224, N
140058, 389.05, N
140287, 389.68611111111113, N
140505, 390.2916666666667, N
140728, 390.9111111111111, N
140962, 391.56111111111113, N
141195, 392.2083333333333, N
141425, 392.84722222222223, N
141642, 393.45, N
141873, 394.09166666666664, N
142101, 394.725, N
142335, 395.375, N
142567, 396.01944444444445, N
142802, 396.6722222222222, N
143037, 397.325, N
143262, 397.95, N
143491, 398.5861111111111, N
143730, 399.25, N
143971, 399.9194444444444, N
144205, 400.56944444444446, N
144444, 401.23333333333335, N
144666, 401.85, N
144908, 402.52222222222224, N
145144, 403.1777777777778, N
145379, 403.8305555555556, N
145617, 404.4916666666667, N
145861, 405.1694444444444, N
146102, 405.8388888888889, N
146333, 406.48055555555555, N
146575, 407.15277777777777, N
146819, 407.8305555555556, N
147064, 408.5111111111111, N
147306, 409.18333333333334, N
147536, 409.8222222222222, N
147771, 410.475, N
148016, 411.15555555555557, N
148252, 411.81111111111113, N
148494, 412.48333333333335, N
148739, 413.1638888888889, N
148985, 413.84722222222223, N
149214, 414.48333333333335, N
149461, 415.1694444444444, N
149706, 415.85, N
149957, 416.5472222222222, N
150198, 417.21666666666664, N
150439, 417.8861111111111, N
150685, 418.56944444444446, N
150934, 419.2611111111111, N
151179, 419.94166666666666, N
151434, 420.65, N
151684, 421.34444444444443, N
151938, 422.05, N
152185, 422.7361111111111, N
152432, 423.4222222222222, N
152682, 424.1166666666667, N
152935, 424.81944444444446, N
153180, 425.5, N
153425, 426.18055555555554, N
153669, 426.85833333333335, N
153920, 427.55555555555554, N
154166, 428.2388888888889, N
154412, 428.9222222222222, N
154668, 429.6333333333333, N
154926, 430.35, N
155181, 431.05833333333334, N
155433, 431.7583333333333, N
155696, 432.4888888888889, N
155955, 433.2083333333333, N
156221, 433.9472222222222, N
156479, 434.6638888888889, N
156748, 435.4111111111111, N
157003, 436.11944444444447, N
157269, 436.85833333333335, N
157540, 437.6111111111111, N
157811, 438.3638888888889, N
158078, 439.10555555555555, N
158345, 439.84722222222223, N
158622, 440.6166666666667, N
158894, 441.3722222222222, N
159168, 442.1333333333333, N
159429, 442.85833333333335, N
159703, 443.61944444444447, N
159974, 444.3722222222222, N
160246, 445.1277777777778, N
160517, 445.88055555555553, N
160784, 446.6222222222222, N
161047, 447.35277777777776, N
161308, 448.0777777777778, N
161582, 448.8388888888889, N
161850, 449.5833333333333, N
162112, 450.31111111111113, N
162366, 451.01666666666665, N
162633, 451.7583333333333, N
162893, 452.48055555555555, N
163153, 453.2027777777778, N
163417, 453.93611111111113, N
163675, 454.65277777777777, N
163928, 455.35555555555555, N
164184, 456.06666666666666, N
164441, 456.78055555555557, N
164699, 457.4972222222222, N
164951, 458.1972222222222, N
165195, 458.875, N
165441, 459.55833333333334, N
165688, 460.24444444444447, N
165939, 460.94166666666666, N
166191, 461.64166666666665, N
166445, 462.34722222222223, N
166699, 463.0527777777778, N
166948, 463.74444444444447, N
167210, 464.47222222222223, N
167486, 465.2388888888889, N
167767, 466.01944444444445, N
168047, 466.7972222222222, N
168319, 467.5527777777778, N
168604, 468.34444444444443, N
168881, 469.1138888888889, N
169159, 469.8861111111111, N
169439, 470.6638888888889, N
169718, 471.43888888888887, N
169990, 472.19444444444446, N
170263, 472.9527777777778, N
170546, 473.7388888888889, N
170821, 474.5027777777778, N
171097, 475.26944444444445, N
171371, 476.03055555555557, N
171643, 476.7861111111111, N
171919, 477.5527777777778, N
172195, 478.31944444444446, N
172469, 479.0805555555556, N
172732, 479.81111111111113, N
173001, 480.55833333333334, N
173268, 481.3, N
173542, 482.06111111111113, N
173806, 482.7944444444444, N
174064, 483.5111111111111, N
174329, 484.2472222222222, N
174593, 484.98055555555555, N
174858, 485.71666666666664, N
175122, 486.45, N
175391, 487.1972222222222, N
175648, 487.9111111111111, N
175911, 488.64166666666665, N
176176, 489.3777777777778, N
176447, 490.13055555555553, N
176709, 490.85833333333335, N
176969, 491.5805555555556, N
177228, 492.3, N
177491, 493.03055555555557, N
177751, 493.7527777777778, N
178014, 494.48333333333335, N
178276, 495.2111111111111, N
178531, 495.9194444444444, N
178791, 496.64166666666665, N
179049, 497.35833333333335, N
179315, 498.09722222222223, N
179573, 498.81388888888887, N
179830, 499.52777777777777, N
180075, 500.2083333333333, N
180335, 500.93055555555554, N
180588, 501.6333333333333, N
180842, 502.3388888888889, N
181093, 503.0361111111111, N
181342, 503.72777777777776, N
181592, 504.4222222222222, N
181839, 505.10833333333335, N
182089, 505.8027777777778, N
182347, 506.51944444444445, N
182597, 507.2138888888889, N
182840, 507.8888888888889, N
183093, 508.59166666666664, N
183352, 509.31111111111113, N
183605, 510.0138888888889, N
183855, 510.7083333333333, N
184111, 511.4194444444444, N
184369, 512.1361111111111, N
184622, 512.8388888888888, N
184880, 513.5555555555555, N
185135, 514.2638888888889, N
185393, 514.9805555555556, N
185653, 515.7027777777778, N
185915, 516.4305555555555, N
186172, 517.1444444444444, N
186433, 517.8694444444444, N
186692, 518.5888888888888, N
186954, 519.3166666666667, N
187222, 520.0611111111111, N
187490, 520.8055555555555, N
187759, 521.5527777777778, N
188024, 522.2888888888889, N
188309, 523.0805555555555, N
188581, 523.8361111111111, N
188859, 524.6083333333333, N
189134, 525.3722222222223, N
189421, 526.1694444444445, N
189700, 526.9444444444445, N
189989, 527.7472222222223, N
190285, 528.5694444444445, N
190566, 529.35, N
190842, 530.1166666666667, N
191125, 530.9027777777778, N
191408, 531.6888888888889, N
191695, 532.4861111111111, N
191970, 533.25, N
192249, 534.025, N
192525, 534.7916666666666, N
192807, 535.575, N
193096, 536.3777777777777, N
193387, 537.1861111111111, N
193669, 537.9694444444444, N
193945, 538.7361111111111, N
194235, 539.5416666666666, N
194514, 540.3166666666667, N
194792, 541.0888888888888, N
195066, 541.85, N
195344, 542.6222222222223, N
195611, 543.3638888888889, N
195882, 544.1166666666667, N
196162, 544.8944444444444, N
196431, 545.6416666666667, N
196697, 546.3805555555556, N
196961, 547.1138888888889, N
197234, 547.8722222222223, N
197504, 548.6222222222223, N
197776, 549.3777777777777, N
198053, 550.1472222222222, N
198329, 550.9138888888889, N
198608, 551.6888888888889, N
198892, 552.4777777777778, N
199175, 553.2638888888889, N
199455, 554.0416666666666, N
199735, 554.8194444444445, N
200014, 555.5944444444444, N
200291, 556.3638888888889, N
200575, 557.1527777777778, N
200848, 557.9111111111112, N
201123, 558.675, N
201393, 559.425, N
201662, 560.1722222222222, N
201942, 560.95, N
202222, 561.7277777777778, N
202489, 562.4694444444444, N
202754, 563.2055555555555, N
203035, 563.9861111111111, N
203307, 564.7416666666667, N
203581, 565.5027777777777, N
203852, 566.2555555555556, N
204123, 567.0083333333333, N
204392, 567.7555555555556, N
204670, 568.5277777777778, N
204954, 569.3166666666667, N
205227, 570.075, N
205499, 570.8305555555555, N
205780, 571.6111111111111, N
206062, 572.3944444444444, N
206338, 573.1611111111112, N
206613, 573.925, N
206890, 574.6944444444445, N
207166, 575.4611111111111, N
207438, 576.2166666666667, N
207710, 576.9722222222222, N
207991, 577.7527777777777, N
208265, 578.5138888888889, N
208536, 579.2666666666667, N
208814, 580.0388888888889, N
209092, 580.8111111111111, N
209378, 581.6055555555556, N
209666, 582.4055555555556, N
209964, 583.2333333333333, N
210251, 584.0305555555556, N
210542, 584.8388888888888, N
210837, 585.6583333333333, N
211120, 586.4444444444445, N
211408, 587.2444444444444, N
211693, 588.0361111111112, N
211975, 588.8194444444445, N
212247, 589.575, N
212520, 590.3333333333334, N
212797, 591.1027777777778, N
213066, 591.85, N
213334, 592.5944444444444, N
213608, 593.3555555555556, N
213888, 594.1333333333333, N
214157, 594.8805555555556, N
214425, 595.625, N
214703, 596.3972222222222, N
214980, 597.1666666666666, N
215258, 597.9388888888889, N
215522, 598.6722222222222, N
215806, 599.4611111111111, N
216080, 600.2222222222222, N
216349, 600.9694444444444, N
216622, 601.7277777777778, N
216898, 602.4944444444444, N
217165, 603.2361111111111, N
217424, 603.9555555555555, N
217704, 604.7333333333333, N
217977, 605.4916666666667, N
218249, 606.2472222222223, N
218507, 606.9638888888888, N
218776, 607.7111111111111, N
219039, 608.4416666666667, N
219304, 609.1777777777778, N
219570, 609.9166666666666, N
219835, 610.6527777777778, N
220098, 611.3833333333333, N
220353, 612.0916666666667, N
220612, 612.8111111111111, N
220871, 613.5305555555556, N
221128, 614.2444444444444, N
221376, 614.9333333333333, N
221624, 615.6222222222223, N
221870, 616.3055555555555, N
222120, 617.0, N
222368, 617.6888888888889, N
222620, 618.3888888888889, N
222869, 619.0805555555555, N
223108, 619.7444444444444, N
223355, 620.4305555555555, N
223606, 621.1277777777777, N
223857, 621.825, N
224102, 622.5055555555556, N
224337, 623.1583333333333, N
224583, 623.8416666666667, N
224828, 624.5222222222222, N
225068, 625.1888888888889, N
225311, 625.8638888888889, N
225547, 626.5194444444444, N
225793, 627.2027777777778, N
226032, 627.8666666666667, N
226277, 628.5472222222222, N
226525, 629.2361111111111, N
226778, 629.9388888888889, N
227027, 630.6305555555556, N
227282, 631.3388888888888, N
227531, 632.0305555555556, N
227789, 632.7472222222223, N
228045, 633.4583333333334, N
228304, 634.1777777777778, N
228567, 634.9083333333333, N
228826, 635.6277777777777, N
229078, 636.3277777777778, N
229331, 637.0305555555556, N
229592, 637.7555555555556, N
229849, 638.4694444444444, N
230105, 639.1805555555555, N
230352, 639.8666666666667, N
230612, 640.5888888888888, N
230865, 641.2916666666666, N
231123, 642.0083333333333, N
231382, 642.7277777777778, N
231647, 643.4638888888888, N
231906, 644.1833333333333, N
232168, 644.9111111111112, N
232433, 645.6472222222222, N
232699, 646.3861111111111, N
232962, 647.1166666666667, N
233230, 647.8611111111111, N
233498, 648.6055555555556, N
233763, 649.3416666666667, N
234028, 650.0777777777778, N
234292, 650.8111111111111, N
234560, 651.5555555555555, N
234831, 652.3083333333333, N
235109, 653.0805555555555, N
235377, 653.825, N
235657, 654.6027777777778, N
235933, 655.3694444444444, N
236198, 656.1055555555556, N
236468, 656.8555555555556, N
236738, 657.6055555555556, N
237006, 658.35, N
237277, 659.1027777777778, N
237552, 659.8666666666667, N
237813, 660.5916666666667, N
238081, 661.3361111111111, N
238353, 662.0916666666667, N
238620, 662.8333333333334, N
238878, 663.55, N
239138, 664.2722222222222, N
239400, 665.0, N
239659, 665.7194444444444, N
239916, 666.4333333333333, N
240180, 667.1666666666666, N
240443, 667.8972222222222, N
240705, 668.625, N
240968, 669.3555555555556, N
241225, 670.0694444444445, N
241494, 670.8166666666667, N
241752, 671.5333333333333, N
242012, 672.2555555555556, N
242263, 672.9527777777778, N
242522, 673.6722222222222, N
242781, 674.3916666666667, N
243037, 675.1027777777778, N
243300, 675.8333333333334, N
243564, 676.5666666666667, N
243824, 677.2888888888889, N
244080, 678.0, N
244350, 678.75, N
244612, 679.4777777777778, N
244872, 680.2, N
245125, 680.9027777777778, N
245388, 681.6333333333333, N
245644, 682.3444444444444, N
245901, 683.0583333333333, N
246155, 683.7638888888889, N
246408, 684.4666666666667, N
246654, 685.15, N
246902, 685.8388888888888, N
247146, 686.5166666666667, N
247385, 687.1805555555555, N
247627, 687.8527777777778, N
247867, 688.5194444444444, N
248094, 689.15, N
248328, 689.8, N
248559, 690.4416666666667, N
248793, 691.0916666666667, N
249026, 691.7388888888889, N
249269, 692.4138888888889, N
249498, 693.05, N
249730, 693.6944444444445, N
249963, 694.3416666666667, N
250211, 695.0305555555556, N
250448, 695.6888888888889, N
250689, 696.3583333333333, N
250916, 696.9888888888889, N
251164, 697.6777777777778, N
251405, 698.3472222222222, N
251645, 699.0138888888889, N
251887, 699.6861111111111, N
252135, 700.375, N
252372, 701.0333333333333, N
252618, 701.7166666666667, N
252860, 702.3888888888889, N
253111, 703.0861111111111, N
253355, 703.7638888888889, N
253599, 704.4416666666667, N
253842, 705.1166666666667, N
254092, 705.8111111111111, N
254339, 706.4972222222223, N
254590, 707.1944444444445, N
254840, 707.8888888888889, N
255096, 708.6, N
255345, 709.2916666666666, N
255601, 710.0027777777777, N
255850, 710.6944444444445, N
256108, 711.4111111111112, N
256358, 712.1055555555556, N
256612, 712.8111111111111, N
256855, 713.4861111111111, N
257115, 714.2083333333334, N
257369, 714.9138888888889, N
257622, 715.6166666666667, N
257879, 716.3305555555555, N
258142, 717.0611111111111, N
258400, 717.7777777777778, N
258657, 718.4916666666667, N
258920, 719.2222222222222, N
259187, 719.9638888888888, N
259447, 720.6861111111111, N
259705, 721.4027777777778, N
259967, 722.1305555555556, N
260226, 722.85, N
260487, 723.575, N
260747, 724.2972222222222, N
261009, 725.025, N
261270, 725.75, N
261532, 726.4777777777778, N
261790, 727.1944444444445, N
262052, 727.9222222222222, N
262306, 728.6277777777777, N
262568, 729.3555555555556, N
262819, 730.0527777777778, N
263081, 730.7805555555556, N
263339, 731.4972222222223, N
263595, 732.2083333333334, N
263852, 732.9222222222222, N
264119, 733.6638888888889, N
264378, 734.3833333333333, N
264634, 735.0944444444444, N
264897, 735.825, N
265162, 736.5611111111111, N
265426, 737.2944444444445, N
265691, 738.0305555555556, N
265963, 738.7861111111112, N
266229, 739.525, N
266493, 740.2583333333333, N
266765, 741.0138888888889, N
267040, 741.7777777777778, N
267306, 742.5166666666667, N
267574, 743.2611111111111, N
267849, 744.025, N
268126, 744.7944444444445, N
268400, 745.5555555555555, N
268672, 746.3111111111111, N
268945, 747.0694444444445, N
269218, 747.8277777777778, N
269496, 748.6, N
269773, 749.3694444444444, N
270062, 750.1722222222222, N
270339, 750.9416666666667, N
270615, 751.7083333333334, N
270898, 752.4944444444444, N
271181, 753.2805555555556, N
271460, 754.0555555555555, N
271731, 754.8083333333333, N
272013, 755.5916666666667, N
272284, 756.3444444444444, N
272560, 757.1111111111111, N
272843, 757.8972222222222, N
273120, 758.6666666666666, N
273396, 759.4333333333333, N
273681, 760.225, N
273987, 761.075, N
274281, 761.8916666666667, N
274568, 762.6888888888889, N
274857, 763.4916666666667, N
275146, 764.2944444444445, N
275437, 765.1027777777778, N
275720, 765.8888888888889, N
276002, 766.6722222222222, N
276283, 767.4527777777778, N
276560, 768.2222222222222, N
276845, 769.0138888888889, N
277115, 769.7638888888889, N
277386, 770.5166666666667, N
277650, 771.25, N
277921, 772.0027777777777, N
278188, 772.7444444444444, N
278451, 773.475, N
278721, 774.225, N
278999, 774.9972222222223, N
279273, 775.7583333333333, N
279548, 776.5222222222222, N
279832, 777.3111111111111, N
280108, 778.0777777777778, N
280390, 778.8611111111111, N
280661, 779.6138888888889, N
280938, 780.3833333333333, N
281220, 781.1666666666666, N
281505, 781.9583333333334, N
281787, 782.7416666666667, N
282060, 783.5, N
282334, 784.2611111111111, N
282609, 785.025, N
282888, 785.8, N
283159, 786.5527777777778, N
283425, 787.2916666666666, N
283696, 788.0444444444445, N
283969, 788.8027777777778, N
284242, 789.5611111111111, N
284511, 790.3083333333333, N
284780, 791.0555555555555, N
285045, 791.7916666666666, N
285310, 792.5277777777778, N
285580, 793.2777777777778, N
285853, 794.0361111111112, N
286114, 794.7611111111111, N
286376, 795.4888888888889, N
286651, 796.2527777777777, N
286917, 796.9916666666667, N
287185, 797.7361111111111, N
287457, 798.4916666666667, N
287731, 799.2527777777777, N
287997, 799.9916666666667, N
288272, 800.7555555555556, N
288548, 801.5222222222222, N
288815, 802.2638888888889, N
289089, 803.025, N
289351, 803.7527777777777, N
289624, 804.5111111111111, N
289888, 805.2444444444444, N
290154, 805.9833333333333, N
290422, 806.7277777777778, N
290706, 807.5166666666667, N
290982, 808.2833333333333, N
291255, 809.0416666666666, N
291536, 809.8222222222222, N
291803, 810.5638888888889, N
292078, 811.3277777777778, N
292343, 812.0638888888889, N
292619, 812.8305555555555, N
292885, 813.5694444444445, N
293148, 814.3, N
293414, 815.0388888888889, N
293682, 815.7833333333333, N
293945, 816.5138888888889, N
294212, 817.2555555555556, N
294492, 818.0333333333333, N
294758, 818.7722222222222, N
295036, 819.5444444444445, N
295318, 820.3277777777778, N
295606, 821.1277777777777, N
295888, 821.9111111111112, N
296170, 822.6944444444445, N
296461, 823.5027777777777, N
296746, 824.2944444444445, N
297037, 825.1027777777778, N
297324, 825.9, N
297603, 826.675, N
297884, 827.4555555555555, N
298155, 828.2083333333334, N
298438, 828.9944444444444, N
298707, 829.7416666666667, N
298968, 830.4666666666667, N
299237, 831.2138888888888, N
299507, 831.9638888888888, N
299772, 832.7, N
300029, 833.4138888888889, N
300297, 834.1583333333333, N
300563, 834.8972222222222, N
300826, 835.6277777777777, N
301086, 836.35, N
301354, 837.0944444444444, N
301611, 837.8083333333333, N
301874, 838.5388888888889, N
302139, 839.275, N
302406, 840.0166666666667, N
302669, 840.7472222222223, N
302928, 841.4666666666667, N
303188, 842.1888888888889, N
303450, 842.9166666666666, N
303709, 843.6361111111111, N
303966, 844.35, N
304223, 845.0638888888889, N
304485, 845.7916666666666, N
304753, 846.5361111111112, N
305023, 847.2861111111112, N
305301, 848.0583333333333, N
305581, 848.8361111111111, N
305858, 849.6055555555556, N
306137, 850.3805555555556, N
306431, 851.1972222222222, N
306714, 851.9833333333333, N
307002, 852.7833333333333, N
307295, 853.5972222222222, N
307578, 854.3833333333333, N
307865, 855.1805555555555, N
308156, 855.9888888888889, N
308442, 856.7833333333333, N
308717, 857.5472222222222, N
308997, 858.325, N
309286, 859.1277777777777, N
309567, 859.9083333333333, N
309857, 860.7138888888888, N
310142, 861.5055555555556, N
310436, 862.3222222222222, N
310721, 863.1138888888889, N
311002, 863.8944444444444, N
311295, 864.7083333333334, N
311586, 865.5166666666667, N
311862, 866.2833333333333, N
312143, 867.0638888888889, N
312428, 867.8555555555556, N
312700, 868.6111111111111, N
312970, 869.3611111111111, N
313253, 870.1472222222222, N
313521, 870.8916666666667, N
313783, 871.6194444444444, N
314053, 872.3694444444444, N
314324, 873.1222222222223, N
314584, 873.8444444444444, N
314846, 874.5722222222222, N
315113, 875.3138888888889, N
315376, 876.0444444444445, N
315641, 876.7805555555556, N
315903, 877.5083333333333, N
316171, 878.2527777777777, N
316431, 878.975, N
316692, 879.7, N
316956, 880.4333333333333, N
317226, 881.1833333333333, N
317487, 881.9083333333333, N
317743, 882.6194444444444, N
318002, 883.3388888888888, N
318270, 884.0833333333334, N
318535, 884.8194444444445, N
318795, 885.5416666666666, N
319055, 886.2638888888889, N
319320, 887.0, N
319583, 887.7305555555556, N
319849, 888.4694444444444, N
320121, 889.225, N
320384, 889.9555555555555, N
320649, 890.6916666666667, N
320917, 891.4361111111111, N
321192, 892.2, N
321451, 892.9194444444445, N
321715, 893.6527777777778, N
321975, 894.375, N
322235, 895.0972222222222, N
322497, 895.825, N
322763, 896.5638888888889, N
323033, 897.3138888888889, N
323294, 898.0388888888889, N
323558, 898.7722222222222, N
323820, 899.5, N
324088, 900.2444444444444, N
324349, 900.9694444444444, N
324607, 901.6861111111111, N
324859, 902.3861111111111, N
325116, 903.1, N
325370, 903.8055555555555, N
325620, 904.5, N
325874, 905.2055555555555, N
326130, 905.9166666666666, N
326378, 906.6055555555556, N
326625, 907.2916666666666, N
326875, 907.9861111111111, N
327124, 908.6777777777778, N
327371, 909.3638888888889, N
327616, 910.0444444444445, N
327864, 910.7333333333333, N
328107, 911.4083333333333, N
328346, 912.0722222222222, N
328593, 912.7583333333333, N
328841, 913.4472222222222, N
329087, 914.1305555555556, N
329331, 914.8083333333333, N
329578, 915.4944444444444, N
329831, 916.1972222222222, N
330083, 916.8972222222222, N
330339, 917.6083333333333, N
330592, 918.3111111111111, N
330852, 919.0333333333333, N
331105, 919.7361111111111, N
331364, 920.4555555555555, N
331628, 921.1888888888889, N
331900, 921.9444444444445, N
332163, 922.675, N
332426, 923.4055555555556, N
332686, 924.1277777777777, N
332956, 924.8777777777777, N
333223, 925.6194444444444, N
333488, 926.3555555555556, N
333755, 927.0972222222222, N
334020, 927.8333333333334, N
334288, 928.5777777777778, N
334560, 929.3333333333334, N
334842, 930.1166666666667, N
335105, 930.8472222222222, N
335373, 931.5916666666667, N
335646, 932.35, N
335920, 933.1111111111111, N
336186, 933.85, N
336445, 934.5694444444445, N
336714, 935.3166666666667, N
336975, 936.0416666666666, N
337244, 936.7888888888889, N
337508, 937.5222222222222, N
337778, 938.2722222222222, N
338038, 938.9944444444444, N
338301, 939.725, N
338561, 940.4472222222222, N
338824, 941.1777777777778, N
339089, 941.9138888888889, N
339350, 942.6388888888889, N
339615, 943.375, N
339877, 944.1027777777778, N
340144, 944.8444444444444, N
340413, 945.5916666666667, N
340690, 946.3611111111111, N
340958, 947.1055555555556, N
341217, 947.825, N
341478, 948.55, N
341748, 949.3, N
342010, 950.0277777777778, N
342271, 950.7527777777777, N
342531, 951.475, N
342789, 952.1916666666667, N
343049, 952.9138888888889, N
343313, 953.6472222222222, N
343580, 954.3888888888889, N
343840, 955.1111111111111, N
344108, 955.8555555555556, N
344375, 956.5972222222222, N
344655, 957.375, N
344927, 958.1305555555556, N
345200, 958.8888888888889, N
345469, 959.6361111111111, N
345744, 960.4, N
346017, 961.1583333333333, N
346298, 961.9388888888889, N
346577, 962.7138888888888, N
346853, 963.4805555555556, N
347129, 964.2472222222223, N
347407, 965.0194444444444, N
347696, 965.8222222222222, N
347975, 966.5972222222222, N
348249, 967.3583333333333, N
348524, 968.1222222222223, N
348798, 968.8833333333333, N
349063, 969.6194444444444, N
349336, 970.3777777777777, N
349614, 971.15, N
349888, 971.9111111111112, N
350170, 972.6944444444445, N
350452, 973.4777777777778, N
350731, 974.2527777777777, N
350997, 974.9916666666667, N
351265, 975.7361111111111, N
351530, 976.4722222222222, N
351795, 977.2083333333334, N
352059, 977.9416666666667, N
352320, 978.6666666666666, N
352589, 979.4138888888889, N
352849, 980.1361111111111, N
353112, 980.8666666666667, N
353369, 981.5805555555555, N
353636, 982.3222222222222, N
353892, 983.0333333333333, N
354147, 983.7416666666667, N
354400, 984.4444444444445, N
354659, 985.1638888888889, N
354909, 985.8583333333333, N
355161, 986.5583333333333, N
355417, 987.2694444444444, N
355674, 987.9833333333333, N
355923, 988.675, N
356175, 989.375, N
356433, 990.0916666666667, N
356688, 990.8, N
356944, 991.5111111111111, N
357196, 992.2111111111111, N
357458, 992.9388888888889, N
357716, 993.6555555555556, N
357981, 994.3916666666667, N
358248, 995.1333333333333, N
358521, 995.8916666666667, N
358795, 996.6527777777778, N
359073, 997.425, N
359360, 998.2222222222222, N
359648, 999.0222222222222, N
359949, 999.8583333333333, N
360227, 1000.6305555555556, N
360519, 1001.4416666666667, N
360808, 1002.2444444444444, N
361094, 1003.0388888888889, N
361382, 1003.8388888888888, N
361659, 1004.6083333333333, N
361940, 1005.3888888888889, N
362229, 1006.1916666666667, N
362522, 1007.0055555555556, N
362803, 1007.7861111111112, N
363079, 1008.5527777777778, N
363364, 1009.3444444444444, N
363645, 1010.125, N
363926, 1010.9055555555556, N
364207, 1011.6861111111111, N
364480, 1012.4444444444445, N
364762, 1013.2277777777778, N
365043, 1014.0083333333333, N
365338, 1014.8277777777778, N
365630, 1015.6388888888889, N
365915, 1016.4305555555555, N
366198, 1017.2166666666667, N
366483, 1018.0083333333333, N
366765, 1018.7916666666666, N
367040, 1019.5555555555555, N
367324, 1020.3444444444444, N
367598, 1021.1055555555556, N
367872, 1021.8666666666667, N
368145, 1022.625, N
368418, 1023.3833333333333, N
368688, 1024.1333333333334, N
368955, 1024.875, N
369233, 1025.6472222222221, N
369504, 1026.4, N
369763, 1027.1194444444445, N
370035, 1027.875, N
370305, 1028.625, N
370566, 1029.35, N
370828, 1030.0777777777778, N
371087, 1030.7972222222222, N
371348, 1031.5222222222221, N
371605, 1032.236111111111, N
371860, 1032.9444444444443, N
372121, 1033.6694444444445, N
372372, 1034.3666666666666, N
372620, 1035.0555555555557, N
372877, 1035.7694444444444, N
373130, 1036.4722222222222, N
373381, 1037.1694444444445, N
373632, 1037.8666666666666, N
373877, 1038.5472222222222, N
374130, 1039.25, N
374378, 1039.9388888888889, N
374630, 1040.638888888889, N
374875, 1041.3194444444443, N
375132, 1042.0333333333333, N
375383, 1042.7305555555556, N
375632, 1043.4222222222222, N
375886, 1044.1277777777777, N
376148, 1044.8555555555556, N
376403, 1045.5638888888889, N
376659, 1046.275, N
376919, 1046.9972222222223, N
377179, 1047.7194444444444, N
377435, 1048.4305555555557, N
377694, 1049.15, N
377960, 1049.888888888889, N
378222, 1050.6166666666666, N
378480, 1051.3333333333333, N
378747, 1052.075, N
379021, 1052.8361111111112, N
379286, 1053.5722222222223, N
379552, 1054.3111111111111, N
379813, 1055.036111111111, N
380084, 1055.7888888888888, N
380351, 1056.5305555555556, N
380621, 1057.2805555555556, N
380886, 1058.0166666666667, N
381146, 1058.7388888888888, N
381410, 1059.4722222222222, N
381673, 1060.2027777777778, N
381946, 1060.9611111111112, N
382207, 1061.6861111111111, N
382468, 1062.411111111111, N
382729, 1063.1361111111112, N
383003, 1063.8972222222221, N
383268, 1064.6333333333334, N
383529, 1065.3583333333333, N
383789, 1066.0805555555555, N
384053, 1066.8138888888889, N
384318, 1067.55, N
384584, 1068.2888888888888, N
384853, 1069.036111111111, N
385117, 1069.7694444444444, N
385385, 1070.513888888889, N
385651, 1071.2527777777777, N
385925, 1072.013888888889, N
386186, 1072.7388888888888, N
386455, 1073.486111111111, N
386719, 1074.2194444444444, N
386989, 1074.9694444444444, N
387258, 1075.7166666666667, N
387524, 1076.4555555555555, N
387797, 1077.213888888889, N
388069, 1077.9694444444444, N
388338, 1078.7166666666667, N
388601, 1079.4472222222223, N
388869, 1080.1916666666666, N
389136, 1080.9333333333334, N
389398, 1081.661111111111, N
389656, 1082.3777777777777, N
389919, 1083.1083333333333, N
390174, 1083.8166666666666, N
390430, 1084.5277777777778, N
390690, 1085.25, N
390956, 1085.9888888888888, N
391210, 1086.6944444444443, N
391465, 1087.4027777777778, N
391726, 1088.1277777777777, N
391989, 1088.8583333333333, N
392250, 1089.5833333333333, N
392508, 1090.3, N
392762, 1091.0055555555555, N
393016, 1091.7111111111112, N
393269, 1092.4138888888888, N
393523, 1093.1194444444445, N
393779, 1093.8305555555555, N
394030, 1094.5277777777778, N
394277, 1095.213888888889, N
394528, 1095.911111111111, N
394788, 1096.6333333333334, N
395045, 1097.3472222222222, N
395303, 1098.0638888888889, N
395548, 1098.7444444444445, N
395814, 1099.4833333333333, N
396070, 1100.1944444444443, N
396332, 1100.9222222222222, N
396602, 1101.6722222222222, N
396876, 1102.4333333333334, N
397143, 1103.175, N
397413, 1103.925, N
397696, 1104.7111111111112, N
397971, 1105.475, N
398246, 1106.2388888888888, N
398518, 1106.9944444444445, N
398802, 1107.7833333333333, N
399077, 1108.5472222222222, N
399357, 1109.325, N
399642, 1110.1166666666666, N
399919, 1110.8861111111112, N
400198, 1111.661111111111, N
400467, 1112.4083333333333, N
400751, 1113.1972222222223, N
401029, 1113.9694444444444, N
401308, 1114.7444444444445, N
401581, 1115.5027777777777, N
401854, 1116.2611111111112, N
402131, 1117.0305555555556, N
402407, 1117.7972222222222, N
402693, 1118.5916666666667, N
402970, 1119.361111111111, N
403239, 1120.1083333333333, N
403521, 1120.8916666666667, N
403806, 1121.6833333333334, N
404097, 1122.4916666666666, N
404387, 1123.2972222222222, N
404687, 1124.1305555555555, N
404985, 1124.9583333333333, N
405287, 1125.7972222222222, N
405595, 1126.6527777777778, N
405881, 1127.4472222222223, N
406162, 1128.2277777777779, N
406449, 1129.025, N
406729, 1129.8027777777777, N
406999, 1130.5527777777777, N
407263, 1131.286111111111, N
407536, 1132.0444444444445, N
407801, 1132.7805555555556, N
408071, 1133.5305555555556, N
408341, 1134.2805555555556, N
408607, 1135.0194444444444, N
408872, 1135.7555555555555, N
409134, 1136.4833333333333, N
409404, 1137.2333333333333, N
409677, 1137.9916666666666, N
409945, 1138.736111111111, N
410206, 1139.4611111111112, N
410480, 1140.2222222222222, N
410754, 1140.9833333333333, N
411028, 1141.7444444444445, N
411312, 1142.5333333333333, N
411597, 1143.325, N
411874, 1144.0944444444444, N
412148, 1144.8555555555556, N
412429, 1145.6361111111112, N
412703, 1146.3972222222221, N
412975, 1147.1527777777778, N
413244, 1147.9, N
413513, 1148.6472222222221, N
413779, 1149.3861111111112, N
414051, 1150.1416666666667, N
414324, 1150.9, N
414593, 1151.6472222222221, N
414861, 1152.3916666666667, N
415127, 1153.1305555555555, N
415400, 1153.888888888889, N
415666, 1154.6277777777777, N
415936, 1155.3777777777777, N
416204, 1156.1222222222223, N
416474, 1156.8722222222223, N
416747, 1157.6305555555555, N
417029, 1158.4138888888888, N
417317, 1159.213888888889, N
417603, 1160.0083333333334, N
417882, 1160.7833333333333, N
418169, 1161.5805555555555, N
418462, 1162.3944444444444, N
418747, 1163.1861111111111, N
419020, 1163.9444444444443, N
419308, 1164.7444444444445, N
419592, 1165.5333333333333, N
419878, 1166.3277777777778, N
420165, 1167.125, N
420452, 1167.9222222222222, N
420740, 1168.7222222222222, N
421025, 1169.513888888889, N
421311, 1170.3083333333334, N
421597, 1171.1027777777779, N
421880, 1171.888888888889, N
422160, 1172.6666666666667, N
422440, 1173.4444444444443, N
422724, 1174.2333333333333, N
423005, 1175.013888888889, N
423294, 1175.8166666666666, N
423587, 1176.6305555555555, N
423877, 1177.4361111111111, N
424188, 1178.3, N
424485, 1179.125, N
424771, 1179.9194444444445, N
425055, 1180.7083333333333, N
425347, 1181.5194444444444, N
425639, 1182.3305555555555, N
425933, 1183.1472222222221, N
426232, 1183.9777777777779, N
426514, 1184.7611111111112, N
426792, 1185.5333333333333, N
427097, 1186.3805555555555, N
427403, 1187.2305555555556, N
427709, 1188.0805555555555, N
427998, 1188.8833333333334, N
428289, 1189.6916666666666, N
428576, 1190.4888888888888, N
428857, 1191.2694444444444, N
429140, 1192.0555555555557, N
429422, 1192.838888888889, N
429706, 1193.6277777777777, N
429988, 1194.411111111111, N
430274, 1195.2055555555555, N
430560, 1196.0, N
430832, 1196.7555555555555, N
431116, 1197.5444444444445, N
431396, 1198.3222222222223, N
431682, 1199.1166666666666, N
431963, 1199.8972222222221, N
432247, 1200.6861111111111, N
432527, 1201.463888888889, N
432805, 1202.236111111111, N
433083, 1203.0083333333334, N
433354, 1203.7611111111112, N
433624, 1204.5111111111112, N
433886, 1205.2388888888888, N
434148, 1205.9666666666667, N
434410, 1206.6944444444443, N
434674, 1207.4277777777777, N
434938, 1208.161111111111, N
435199, 1208.8861111111112, N
435454, 1209.5944444444444, N
435710, 1210.3055555555557, N
435970, 1211.0277777777778, N
436227, 1211.7416666666666, N
436482, 1212.45, N
436734, 1213.15, N
436991, 1213.8638888888888, N
437249, 1214.5805555555555, N
437505, 1215.2916666666667, N
437756, 1215.9888888888888, N
438020, 1216.7222222222222, N
438276, 1217.4333333333334, N
438536, 1218.1555555555556, N
438793, 1218.8694444444445, N
439066, 1219.6277777777777, N
439325, 1220.3472222222222, N
439594, 1221.0944444444444, N
439855, 1221.8194444444443, N
440127, 1222.575, N
440395, 1223.3194444444443, N
440667, 1224.075, N
440938, 1224.8277777777778, N
441202, 1225.5611111111111, N
441473, 1226.3138888888889, N
441737, 1227.0472222222222, N
442010, 1227.8055555555557, N
442278, 1228.55, N
442548, 1229.3, N
442814, 1230.0388888888888, N
443078, 1230.7722222222221, N
443346, 1231.5166666666667, N
443612, 1232.2555555555555, N
443890, 1233.0277777777778, N
444157, 1233.7694444444444, N
444426, 1234.5166666666667, N
444694, 1235.2611111111112, N
444971, 1236.0305555555556, N
445241, 1236.7805555555556, N
445508, 1237.5222222222221, N
445789, 1238.3027777777777, N
446065, 1239.0694444444443, N
446339, 1239.8305555555555, N
446621, 1240.6138888888888, N
446913, 1241.425, N
447196, 1242.2111111111112, N
447477, 1242.9916666666666, N
447777, 1243.825, N
448064, 1244.6222222222223, N
448358, 1245.4388888888889, N
448650, 1246.25, N
448947, 1247.075, N
449238, 1247.8833333333334, N
449529, 1248.6916666666666, N
449832, 1249.5333333333333, N
450127, 1250.3527777777779, N
450425, 1251.1805555555557, N
450725, 1252.013888888889, N
451009, 1252.8027777777777, N
451288, 1253.5777777777778, N
451562, 1254.338888888889, N
451839, 1255.1083333333333, N
452110, 1255.861111111111, N
452383, 1256.6194444444445, N
452665, 1257.4027777777778, N
452940, 1258.1666666666667, N
453204, 1258.9, N
453474, 1259.65, N
453745, 1260.4027777777778, N
454013, 1261.1472222222221, N
454278, 1261.8833333333334, N
454540, 1262.611111111111, N
454798, 1263.3277777777778, N
455059, 1264.0527777777777, N
455324, 1264.7888888888888, N
455589, 1265.525, N
455845, 1266.236111111111, N
456108, 1266.9666666666667, N
456371, 1267.6972222222223, N
456642, 1268.45, N
456907, 1269.1861111111111, N
457174, 1269.9277777777777, N
457443, 1270.675, N
457718, 1271.4388888888889, N
457991, 1272.1972222222223, N
458270, 1272.9722222222222, N
458552, 1273.7555555555555, N
458831, 1274.5305555555556, N
459100, 1275.2777777777778, N
459367, 1276.0194444444444, N
459642, 1276.7833333333333, N
459914, 1277.5388888888888, N
460178, 1278.2722222222221, N
460446, 1279.0166666666667, N
460715, 1279.763888888889, N
460979, 1280.4972222222223, N
461253, 1281.2583333333334, N
461530, 1282.0277777777778, N
461793, 1282.7583333333334, N
462068, 1283.5222222222221, N
462349, 1284.3027777777777, N
462632, 1285.088888888889, N
462919, 1285.8861111111112, N
463201, 1286.6694444444445, N
463482, 1287.45, N
463748, 1288.1888888888889, N
464021, 1288.9472222222223, N
464293, 1289.7027777777778, N
464563, 1290.4527777777778, N
464826, 1291.1833333333334, N
465089, 1291.9138888888888, N
465356, 1292.6555555555556, N
465619, 1293.3861111111112, N
465879, 1294.1083333333333, N
466137, 1294.825, N
466404, 1295.5666666666666, N
466662, 1296.2833333333333, N
466919, 1296.9972222222223, N
467179, 1297.7194444444444, N
467448, 1298.4666666666667, N
467707, 1299.1861111111111, N
467968, 1299.911111111111, N
468229, 1300.6361111111112, N
468498, 1301.3833333333334, N
468761, 1302.1138888888888, N
469021, 1302.8361111111112, N
469282, 1303.5611111111111, N
469538, 1304.2722222222221, N
469799, 1304.9972222222223, N
470062, 1305.7277777777779, N
470329, 1306.4694444444444, N
470586, 1307.1833333333334, N
470850, 1307.9166666666667, N
471113, 1308.6472222222221, N
471383, 1309.3972222222221, N
471642, 1310.1166666666666, N
471907, 1310.8527777777779, N
472162, 1311.5611111111111, N
472425, 1312.2916666666667, N
472683, 1313.0083333333334, N
472941, 1313.725, N
473206, 1314.4611111111112, N
473468, 1315.1888888888889, N
473724, 1315.9, N
473978, 1316.6055555555556, N
474244, 1317.3444444444444, N
474505, 1318.0694444444443, N
474768, 1318.8, N
475023, 1319.5083333333334, N
475286, 1320.2388888888888, N
475544, 1320.9555555555555, N
475807, 1321.6861111111111, N
476074, 1322.4277777777777, N
476346, 1323.1833333333334, N
476605, 1323.9027777777778, N
476868, 1324.6333333333334, N
477135, 1325.375, N
477402, 1326.1166666666666, N
477667, 1326.8527777777779, N
477928, 1327.5777777777778, N
478191, 1328.3083333333334, N
478454, 1329.0388888888888, N
478718, 1329.7722222222221, N
478980, 1330.5, N
479247, 1331.2416666666666, N
479507, 1331.963888888889, N
479766, 1332.6833333333334, N
480023, 1333.3972222222221, N
480296, 1334.1555555555556, N
480557, 1334.8805555555555, N
480815, 1335.5972222222222, N
481070, 1336.3055555555557, N
481328, 1337.0222222222221, N
481584, 1337.7333333333333, N
481839, 1338.4416666666666, N
482099, 1339.1638888888888, N
482352, 1339.8666666666666, N
482599, 1340.5527777777777, N
482851, 1341.2527777777777, N
483109, 1341.9694444444444, N
483360, 1342.6666666666667, N
483609, 1343.3583333333333, N
483850, 1344.0277777777778, N
484101, 1344.725, N
484346, 1345.4055555555556, N
484595, 1346.0972222222222, N
484839, 1346.775, N
485083, 1347.4527777777778, N
485327, 1348.1305555555555, N
485569, 1348.8027777777777, N
485807, 1349.463888888889, N
486049, 1350.1361111111112, N
486286, 1350.7944444444445, N
486531, 1351.475, N
486762, 1352.1166666666666, N
487003, 1352.786111111111, N
487235, 1353.4305555555557, N
487477, 1354.1027777777779, N
487715, 1354.763888888889, N
487959, 1355.4416666666666, N
488198, 1356.1055555555556, N
488426, 1356.7388888888888, N
488663, 1357.3972222222221, N
488908, 1358.0777777777778, N
489147, 1358.7416666666666, N
489379, 1359.3861111111112, N
489606, 1360.0166666666667, N
489842, 1360.6722222222222, N
490078, 1361.3277777777778, N
490309, 1361.9694444444444, N
490543, 1362.6194444444445, N
490774, 1363.2611111111112, N
491019, 1363.9416666666666, N
491252, 1364.588888888889, N
491493, 1365.2583333333334, N
491731, 1365.9194444444445, N
491978, 1366.6055555555556, N
492215, 1367.263888888889, N
492461, 1367.9472222222223, N
492696, 1368.6, N
492943, 1369.286111111111, N
493188, 1369.9666666666667, N
493435, 1370.6527777777778, N
493683, 1371.3416666666667, N
493939, 1372.0527777777777, N
494190, 1372.75, N
494448, 1373.4666666666667, N
494705, 1374.1805555555557, N
494967, 1374.9083333333333, N
495229, 1375.6361111111112, N
495488, 1376.3555555555556, N
495756, 1377.1, N
496018, 1377.8277777777778, N
496282, 1378.5611111111111, N
496549, 1379.3027777777777, N
496823, 1380.0638888888889, N
497086, 1380.7944444444445, N
497351, 1381.5305555555556, N
497618, 1382.2722222222221, N
497885, 1383.013888888889, N
498154, 1383.7611111111112, N
498421, 1384.5027777777777, N
498691, 1385.2527777777777, N
498956, 1385.9888888888888, N
499233, 1386.7583333333334, N
499510, 1387.5277777777778, N
499789, 1388.3027777777777, N
500061, 1389.0583333333334, N
500337, 1389.825, N
500622, 1390.6166666666666, N
500898, 1391.3833333333334, N
501171, 1392.1416666666667, N
501436, 1392.8777777777777, N
501711, 1393.6416666666667, N
501978, 1394.3833333333334, N
502236, 1395.1, N
502500, 1395.8333333333333, N
502768, 1396.5777777777778, N
503028, 1397.3, N
503285, 1398.013888888889, N
503547, 1398.7416666666666, N
503809, 1399.4694444444444, N
504068, 1400.1888888888889, N
504323, 1400.8972222222221, N
504589, 1401.6361111111112, N
504842, 1402.338888888889, N
505099, 1403.0527777777777, N
505363, 1403.786111111111, N
505625, 1404.513888888889, N
505881, 1405.225, N
506134, 1405.9277777777777, N
506385, 1406.625, N
506642, 1407.338888888889, N
506893, 1408.036111111111, N
507149, 1408.7472222222223, N
507401, 1409.4472222222223, N
507664, 1410.1777777777777, N
507923, 1410.8972222222221, N
508187, 1411.6305555555555, N
508457, 1412.3805555555555, N
508732, 1413.1444444444444, N
508998, 1413.8833333333334, N
509261, 1414.6138888888888, N
509535, 1415.375, N
509801, 1416.1138888888888, N
510067, 1416.8527777777779, N
510325, 1417.5694444444443, N
510594, 1418.3166666666666, N
510854, 1419.0388888888888, N
511118, 1419.7722222222221, N
511386, 1420.5166666666667, N
511655, 1421.263888888889, N
511920, 1422.0, N
512192, 1422.7555555555555, N
512473, 1423.536111111111, N
512746, 1424.2944444444445, N
513024, 1425.0666666666666, N
513292, 1425.8111111111111, N
513567, 1426.575, N
513835, 1427.3194444444443, N
514106, 1428.0722222222223, N
514380, 1428.8333333333333, N
514650, 1429.5833333333333, N
514921, 1430.3361111111112, N
515187, 1431.075, N
515465, 1431.8472222222222, N
515730, 1432.5833333333333, N
515998, 1433.3277777777778, N
516259, 1434.0527777777777, N
516536, 1434.8222222222223, N
516807, 1435.575, N
517075, 1436.3194444444443, N
517348, 1437.0777777777778, N
517622, 1437.838888888889, N
517890, 1438.5833333333333, N
518156, 1439.3222222222223, N
518434, 1440.0944444444444, N
518704, 1440.8444444444444, N
518980, 1441.611111111111, N
519258, 1442.3833333333334, N
519533, 1443.1472222222221, N
519812, 1443.9222222222222, N
520097, 1444.713888888889, N
520382, 1445.5055555555555, N
520662, 1446.2833333333333, N
520934, 1447.0388888888888, N
521198, 1447.7722222222221, N
521471, 1448.5305555555556, N
521736, 1449.2666666666667, N
521998, 1449.9944444444445, N
522254, 1450.7055555555555, N
522514, 1451.4277777777777, N
522762, 1452.1166666666666, N
523017, 1452.825, N
523274, 1453.5388888888888, N
523526, 1454.2388888888888, N
523768, 1454.911111111111, N
524014, 1455.5944444444444, N
524266, 1456.2944444444445, N
524512, 1456.9777777777779, N
524754, 1457.65, N
525001, 1458.3361111111112, N
525251, 1459.0305555555556, N
525499, 1459.7194444444444, N
525746, 1460.4055555555556, N
525996, 1461.1, N
526253, 1461.8138888888889, N
526504, 1462.5111111111112, N
526757, 1463.213888888889, N
527006, 1463.9055555555556, N
527265, 1464.625, N
527515, 1465.3194444444443, N
527776, 1466.0444444444445, N
528026, 1466.7388888888888, N
528293, 1467.4805555555556, N
528553, 1468.2027777777778, N
528816, 1468.9333333333334, N
529080, 1469.6666666666667, N
529350, 1470.4166666666667, N
529614, 1471.15, N
529877, 1471.8805555555555, N
530146, 1472.6277777777777, N
530416, 1473.3777777777777, N
530682, 1474.1166666666666, N
530942, 1474.838888888889, N
531217, 1475.6027777777779, N
531476, 1476.3222222222223, N
531740, 1477.0555555555557, N
532009, 1477.8027777777777, N
532278, 1478.55, N
532542, 1479.2833333333333, N
532808, 1480.0222222222221, N
533079, 1480.775, N
533345, 1481.513888888889, N
533616, 1482.2666666666667, N
533880, 1483.0, N
534154, 1483.7611111111112, N
534416, 1484.4888888888888, N
534680, 1485.2222222222222, N
534947, 1485.963888888889, N
535220, 1486.7222222222222, N
535489, 1487.4694444444444, N
535751, 1488.1972222222223, N
536026, 1488.9611111111112, N
536301, 1489.725, N
536583, 1490.5083333333334, N
536853, 1491.2583333333334, N
537134, 1492.0388888888888, N
537409, 1492.8027777777777, N
537681, 1493.5583333333334, N
537960, 1494.3333333333333, N
538229, 1495.0805555555555, N
538497, 1495.825, N
538764, 1496.5666666666666, N
539035, 1497.3194444444443, N
539300, 1498.0555555555557, N
539570, 1498.8055555555557, N
539837, 1499.5472222222222, N
540095, 1500.263888888889, N
540361, 1501.0027777777777, N
540627, 1501.7416666666666, N
540894, 1502.4833333333333, N
541148, 1503.1888888888889, N
541407, 1503.9083333333333, N
541664, 1504.6222222222223, N
541928, 1505.3555555555556, N
542188, 1506.0777777777778, N
542445, 1506.7916666666667, N
542699, 1507.4972222222223, N
542958, 1508.2166666666667, N
543220, 1508.9444444444443, N
543479, 1509.6638888888888, N
543743, 1510.3972222222221, N
544008, 1511.1333333333334, N
544271, 1511.8638888888888, N
544529, 1512.5805555555555, N
544800, 1513.3333333333333, N
545060, 1514.0555555555557, N
545320, 1514.7777777777778, N
545574, 1515.4833333333333, N
545836, 1516.2111111111112, N
546090, 1516.9166666666667, N
546345, 1517.625, N
546603, 1518.3416666666667, N
546868, 1519.0777777777778, N
547121, 1519.7805555555556, N
547380, 1520.5, N
547640, 1521.2222222222222, N
547898, 1521.9388888888889, N
548158, 1522.661111111111, N
548413, 1523.3694444444445, N
548669, 1524.0805555555555, N
548921, 1524.7805555555556, N
549171, 1525.475, N
549427, 1526.1861111111111, N
549682, 1526.8944444444444, N
549937, 1527.6027777777779, N
550192, 1528.3111111111111, N
550446, 1529.0166666666667, N
550710, 1529.75, N
550978, 1530.4944444444445, N
551243, 1531.2305555555556, N
551503, 1531.9527777777778, N
551770, 1532.6944444444443, N
552038, 1533.4388888888889, N
552310, 1534.1944444444443, N
552599, 1534.9972222222223, N
552880, 1535.7777777777778, N
553156, 1536.5444444444445, N
553439, 1537.3305555555555, N
553729, 1538.1361111111112, N
554004, 1538.9, N
554289, 1539.6916666666666, N
554567, 1540.463888888889, N
554850, 1541.25, N
555133, 1542.036111111111, N
555418, 1542.8277777777778, N
555704, 1543.6222222222223, N
555978, 1544.3833333333334, N
556255, 1545.1527777777778, N
556531, 1545.9194444444445, N
556815, 1546.7083333333333, N
557093, 1547.4805555555556, N
557364, 1548.2333333333333, N
557649, 1549.025, N
557933, 1549.8138888888889, N
558221, 1550.6138888888888, N
558502, 1551.3944444444444, N
558780, 1552.1666666666667, N
559065, 1552.9583333333333, N
559357, 1553.7694444444444, N
559673, 1554.6472222222221, N
559979, 1555.4972222222223, N
560280, 1556.3333333333333, N
560590, 1557.1944444444443, N
560878, 1557.9944444444445, N
561169, 1558.8027777777777, N
561465, 1559.625, N
561753, 1560.425, N
562034, 1561.2055555555555, N
562315, 1561.986111111111, N
562604, 1562.7888888888888, N
562894, 1563.5944444444444, N
563190, 1564.4166666666667, N
563485, 1565.236111111111, N
563780, 1566.0555555555557, N
564076, 1566.8777777777777, N
564369, 1567.6916666666666, N
564658, 1568.4944444444445, N
564939, 1569.275, N
565213, 1570.036111111111, N
565497, 1570.825, N
565770, 1571.5833333333333, N
566049, 1572.3583333333333, N
566322, 1573.1166666666666, N
566594, 1573.8722222222223, N
566855, 1574.5972222222222, N
567121, 1575.3361111111112, N
567392, 1576.088888888889, N
567654, 1576.8166666666666, N
567914, 1577.5388888888888, N
568172, 1578.2555555555555, N
568443, 1579.0083333333334, N
568705, 1579.736111111111, N
568971, 1580.475, N
569225, 1581.1805555555557, N
569484, 1581.9, N
569746, 1582.6277777777777, N
570010, 1583.361111111111, N
570275, 1584.0972222222222, N
570537, 1584.825, N
570802, 1585.5611111111111, N
571070, 1586.3055555555557, N
571342, 1587.0611111111111, N
571604, 1587.7888888888888, N
571866, 1588.5166666666667, N
572120, 1589.2222222222222, N
572385, 1589.9583333333333, N
572642, 1590.6722222222222, N
572896, 1591.3777777777777, N
573158, 1592.1055555555556, N
573421, 1592.8361111111112, N
573677, 1593.5472222222222, N
573930, 1594.25, N
574190, 1594.9722222222222, N
574447, 1595.6861111111111, N
574700, 1596.388888888889, N
574949, 1597.0805555555555, N
575203, 1597.786111111111, N
575449, 1598.4694444444444, N
575694, 1599.15, N
575943, 1599.8416666666667, N
576192, 1600.5333333333333, N
576435, 1601.2083333333333, N
576678, 1601.8833333333334, N
576919, 1602.5527777777777, N
577169, 1603.2472222222223, N
577413, 1603.925, N
577661, 1604.6138888888888, N
577899, 1605.275, N
578144, 1605.9555555555555, N
578389, 1606.6361111111112, N
578634, 1607.3166666666666, N
578879, 1607.9972222222223, N
579129, 1608.6916666666666, N
579380, 1609.388888888889, N
579633, 1610.0916666666667, N
579888, 1610.8, N
580155, 1611.5416666666667, N
580413, 1612.2583333333334, N
580670, 1612.9722222222222, N
580929, 1613.6916666666666, N
581193, 1614.425, N
581447, 1615.1305555555555, N
581701, 1615.8361111111112, N
581962, 1616.5611111111111, N
582222, 1617.2833333333333, N
582476, 1617.9888888888888, N
582732, 1618.7, N
582989, 1619.4138888888888, N
583243, 1620.1194444444445, N
583498, 1620.8277777777778, N
583748, 1621.5222222222221, N
584002, 1622.2277777777779, N
584245, 1622.9027777777778, N
584495, 1623.5972222222222, N
584742, 1624.2833333333333, N
584994, 1624.9833333333333, N
585240, 1625.6666666666667, N
585484, 1626.3444444444444, N
585729, 1627.025, N
585983, 1627.7305555555556, N
586230, 1628.4166666666667, N
586478, 1629.1055555555556, N
586713, 1629.7583333333334, N
586969, 1630.4694444444444, N
587216, 1631.1555555555556, N
587465, 1631.8472222222222, N
587714, 1632.5388888888888, N
587968, 1633.2444444444445, N
588216, 1633.9333333333334, N
588464, 1634.6222222222223, N
588713, 1635.3138888888889, N
588970, 1636.0277777777778, N
589216, 1636.7111111111112, N
589468, 1637.411111111111, N
589714, 1638.0944444444444, N
589968, 1638.8, N
590212, 1639.4777777777779, N
590458, 1640.161111111111, N
590709, 1640.8583333333333, N
590962, 1641.5611111111111, N
591212, 1642.2555555555555, N
591464, 1642.9555555555555, N
591715, 1643.6527777777778, N
591976, 1644.3777777777777, N
592233, 1645.0916666666667, N
592489, 1645.8027777777777, N
592738, 1646.4944444444445, N
592991, 1647.1972222222223, N
593243, 1647.8972222222221, N
593492, 1648.588888888889, N
593746, 1649.2944444444445, N
593999, 1649.9972222222223, N
594244, 1650.6777777777777, N
594489, 1651.3583333333333, N
594742, 1652.0611111111111, N
594994, 1652.7611111111112, N
595242, 1653.45, N
595484, 1654.1222222222223, N
595732, 1654.8111111111111, N
595981, 1655.5027777777777, N
596224, 1656.1777777777777, N
596472, 1656.8666666666666, N
596724, 1657.5666666666666, N
596971, 1658.2527777777777, N
597215, 1658.9305555555557, N
597465, 1659.625, N
597716, 1660.3222222222223, N
597968, 1661.0222222222221, N
598219, 1661.7194444444444, N
598465, 1662.4027777777778, N
598718, 1663.1055555555556, N
598970, 1663.8055555555557, N
599226, 1664.5166666666667, N
599486, 1665.2388888888888, N
599750, 1665.9722222222222, N
600014, 1666.7055555555555, N
600272, 1667.4222222222222, N
600532, 1668.1444444444444, N
600802, 1668.8944444444444, N
601061, 1669.6138888888888, N
601319, 1670.3305555555555, N
601570, 1671.0277777777778, N
601829, 1671.7472222222223, N
602079, 1672.4416666666666, N
602329, 1673.1361111111112, N
602583, 1673.8416666666667, N
602840, 1674.5555555555557, N
603087, 1675.2416666666666, N
603341, 1675.9472222222223, N
603600, 1676.6666666666667, N
603860, 1677.388888888889, N
604121, 1678.1138888888888, N
604378, 1678.8277777777778, N
604639, 1679.5527777777777, N
604896, 1680.2666666666667, N
605153, 1680.9805555555556, N
605409, 1681.6916666666666, N
605668, 1682.411111111111, N
605923, 1683.1194444444445, N
606183, 1683.8416666666667, N
606438, 1684.55, N
606706, 1685.2944444444445, N
606968, 1686.0222222222221, N
607233, 1686.7583333333334, N
607498, 1687.4944444444445, N
607776, 1688.2666666666667, N
608043, 1689.0083333333334, N
608315, 1689.763888888889, N
608599, 1690.5527777777777, N
608870, 1691.3055555555557, N
609139, 1692.0527777777777, N
609408, 1692.8, N
609682, 1693.5611111111111, N
609946, 1694.2944444444445, N
610209, 1695.025, N
610473, 1695.7583333333334, N
610731, 1696.475, N
610993, 1697.2027777777778, N
611272, 1697.9777777777779, N
611572, 1698.8111111111111, N
611872, 1699.6444444444444, N
612170, 1700.4722222222222, N
612475, 1701.3194444444443, N
612772, 1702.1444444444444, N
613063, 1702.9527777777778, N
613345, 1703.736111111111, N
613636, 1704.5444444444445, N
613929, 1705.3583333333333, N
614207, 1706.1305555555555, N
614494, 1706.9277777777777, N
614778, 1707.7166666666667, N
615059, 1708.4972222222223, N
615344, 1709.2888888888888, N
615625, 1710.0694444444443, N
615908, 1710.8555555555556, N
616179, 1711.6083333333333, N
616455, 1712.375, N
616722, 1713.1166666666666, N
616991, 1713.8638888888888, N
617265, 1714.625, N
617536, 1715.3777777777777, N
617798, 1716.1055555555556, N
618059, 1716.8305555555555, N
618332, 1717.588888888889, N
618594, 1718.3166666666666, N
618860, 1719.0555555555557, N
619111, 1719.7527777777777, N
619375, 1720.486111111111, N
619635, 1721.2083333333333, N
619894, 1721.9277777777777, N
620159, 1722.6638888888888, N
620415, 1723.375, N
620673, 1724.0916666666667, N
620926, 1724.7944444444445, N
621189, 1725.525, N
621450, 1726.25, N
621713, 1726.9805555555556, N
621959, 1727.6638888888888, N
622222, 1728.3944444444444, N
622475, 1729.0972222222222, N
622730, 1729.8055555555557, N
622985, 1730.513888888889, N
623242, 1731.2277777777779, N
623491, 1731.9194444444445, N
623740, 1732.611111111111, N
623996, 1733.3222222222223, N
624254, 1734.0388888888888, N
624502, 1734.7277777777779, N
624755, 1735.4305555555557, N
625007, 1736.1305555555555, N
625264, 1736.8444444444444, N
625522, 1737.5611111111111, N
625789, 1738.3027777777777, N
626057, 1739.0472222222222, N
626324, 1739.7888888888888, N
626591, 1740.5305555555556, N
626861, 1741.2805555555556, N
627142, 1742.0611111111111, N
627410, 1742.8055555555557, N
627680, 1743.5555555555557, N
627947, 1744.2972222222222, N
628218, 1745.05, N
628486, 1745.7944444444445, N
628754, 1746.5388888888888, N
629027, 1747.2972222222222, N
629298, 1748.05, N
629564, 1748.7888888888888, N
629830, 1749.5277777777778, N
630100, 1750.2777777777778, N
630361, 1751.0027777777777, N
630623, 1751.7305555555556, N
630878, 1752.4388888888889, N
631143, 1753.175, N
631397, 1753.8805555555555, N
631649, 1754.5805555555555, N
631908, 1755.3, N
632166, 1756.0166666666667, N
632414, 1756.7055555555555, N
632668, 1757.411111111111, N
632922, 1758.1166666666666, N
633180, 1758.8333333333333, N
633434, 1759.5388888888888, N
633686, 1760.2388888888888, N
633942, 1760.95, N
634193, 1761.6472222222221, N
634446, 1762.35, N
634702, 1763.0611111111111, N
634959, 1763.775, N
635211, 1764.475, N
635460, 1765.1666666666667, N
635703, 1765.8416666666667, N
635960, 1766.5555555555557, N
636209, 1767.2472222222223, N
636458, 1767.9388888888889, N
636697, 1768.6027777777779, N
636948, 1769.3, N
637197, 1769.9916666666666, N
637448, 1770.6888888888889, N
637700, 1771.388888888889, N
637961, 1772.1138888888888, N
638210, 1772.8055555555557, N
638460, 1773.5, N
638712, 1774.2, N
638975, 1774.9305555555557, N
639226, 1775.6277777777777, N
639482, 1776.338888888889, N
639726, 1777.0166666666667, N
639977, 1777.713888888889, N
640226, 1778.4055555555556, N
640475, 1779.0972222222222, N
640724, 1779.7888888888888, N
640971, 1780.475, N
641214, 1781.15, N
641459, 1781.8305555555555, N
641705, 1782.513888888889, N
641958, 1783.2166666666667, N
642205, 1783.9027777777778, N
642451, 1784.5861111111112, N
642697, 1785.2694444444444, N
642952, 1785.9777777777779, N
643205, 1786.6805555555557, N
643458, 1787.3833333333334, N
643715, 1788.0972222222222, N
643977, 1788.825, N
644235, 1789.5416666666667, N
644492, 1790.2555555555555, N
644759, 1790.9972222222223, N
645018, 1791.7166666666667, N
645273, 1792.425, N
645527, 1793.1305555555555, N
645790, 1793.861111111111, N
646046, 1794.5722222222223, N
646301, 1795.2805555555556, N
646555, 1795.986111111111, N
646818, 1796.7166666666667, N
647071, 1797.4194444444445, N
647329, 1798.1361111111112, N
647587, 1798.8527777777779, N
647849, 1799.5805555555555, N
648102, 1800.2833333333333, N
648360, 1801.0, N
648609, 1801.6916666666666, N
648870, 1802.4166666666667, N
649126, 1803.1277777777777, N
649383, 1803.8416666666667, N
649643, 1804.5638888888889, N
649905, 1805.2916666666667, N
