25, 0.06944444444444445, +
70, 0.19444444444444445, N
550, 1.5277777777777777, N
1021, 2.8361111111111112, N
1498, 4.161111111111111, N
1925, 5.347222222222222, N
2340, 6.5, N
2821, 7.836111111111111, N
3259, 9.052777777777777, N
3667, 10.186111111111112, N
4154, 11.53888888888889, N
4630, 12.86111111111111, N
5071, 14.08611111111111, N
5594, 15.53888888888889, N
6073, 16.869444444444444, N
6510, 18.083333333333332, N
6991, 19.419444444444444, N
7474, 20.761111111111113, N
7920, 22.0, N
8409, 23.358333333333334, N
8892, 24.7, N
9326, 25.905555555555555, N
9793, 27.20277777777778, N
10273, 28.53611111111111, N
10713, 29.758333333333333, N
11198, 31.105555555555554, N
11681, 32.44722222222222, N
12145, 33.736111111111114, N
12635, 35.09722222222222, N
13114, 36.42777777777778, N
13530, 37.583333333333336, N
13992, 38.86666666666667, N
14438, 40.105555555555554, N
14848, 41.24444444444445, N
15276, 42.43333333333333, N
15721, 43.669444444444444, N
16111, 44.75277777777778, N
16512, 45.86666666666667, N
16948, 47.077777777777776, N
17352, 48.2, N
17739, 49.275, N
18194, 50.53888888888889, N
18620, 51.72222222222222, N
19026, 52.85, N
19492, 54.144444444444446, N
19915, 55.31944444444444, N
20318, 56.43888888888889, N
20754, 57.65, N
21165, 58.791666666666664, N
21554, 59.87222222222222, N
22001, 61.11388888888889, N
22456, 62.37777777777778, N
22873, 63.53611111111111, N
23322, 64.78333333333333, N
23759, 65.99722222222222, N
24174, 67.15, N
24617, 68.38055555555556, N
25061, 69.6138888888889, N
25465, 70.73611111111111, N
25914, 71.98333333333333, N
26350, 73.19444444444444, N
26746, 74.29444444444445, N
27120, 75.33333333333333, N
27476, 76.32222222222222, N
27840, 77.33333333333333, N
28200, 78.33333333333333, N
28541, 79.28055555555555, N
28909, 80.30277777777778, N
29289, 81.35833333333333, N
29659, 82.3861111111111, N
30066, 83.51666666666667, N
30544, 84.84444444444445, N
31001, 86.1138888888889, N
31471, 87.41944444444445, N
31933, 88.70277777777778, N
32365, 89.90277777777777, N
32799, 91.10833333333333, N
33257, 92.38055555555556, N
33674, 93.53888888888889, N
34101, 94.725, N
34546, 95.96111111111111, N
34953, 97.09166666666667, N
35373, 98.25833333333334, N
35877, 99.65833333333333, N
36304, 100.84444444444445, N
36712, 101.97777777777777, N
37217, 103.38055555555556, N
37643, 104.56388888888888, N
38031, 105.64166666666667, N
38394, 106.65, N
38743, 107.61944444444444, N
39103, 108.61944444444444, N
39480, 109.66666666666667, N
39843, 110.675, N
40226, 111.7388888888889, N
40625, 112.84722222222223, N
41017, 113.93611111111112, N
41512, 115.31111111111112, N
42010, 116.69444444444444, N
42492, 118.03333333333333, N
42985, 119.40277777777777, N
43420, 120.61111111111111, N
43864, 121.84444444444445, N
44331, 123.14166666666667, N
44751, 124.30833333333334, N
45142, 125.39444444444445, N
45560, 126.55555555555556, N
46008, 127.8, N
46429, 128.96944444444443, N
46874, 130.20555555555555, N
47332, 131.4777777777778, N
47700, 132.5, N
48066, 133.51666666666668, N
48433, 134.5361111111111, N
48813, 135.59166666666667, N
49339, 137.05277777777778, N
49807, 138.3527777777778, N
50288, 139.6888888888889, N
50766, 141.01666666666668, N
51212, 142.25555555555556, N
51683, 143.5638888888889, N
52162, 144.89444444444445, N
52587, 146.075, N
53077, 147.4361111111111, N
53545, 148.73611111111111, N
53959, 149.88611111111112, N
54398, 151.10555555555555, N
54867, 152.40833333333333, N
55297, 153.6027777777778, N
55715, 154.76388888888889, N
56185, 156.06944444444446, N
56566, 157.12777777777777, N
56947, 158.1861111111111, N
57343, 159.2861111111111, N
57762, 160.45, N
58304, 161.95555555555555, N
58809, 163.35833333333332, N
59267, 164.63055555555556, N
59747, 165.9638888888889, N
60202, 167.2277777777778, N
60639, 168.44166666666666, N
61109, 169.74722222222223, N
61538, 170.9388888888889, N
61934, 172.0388888888889, N
62358, 173.21666666666667, N
62773, 174.36944444444444, N
63168, 175.46666666666667, N
63566, 176.57222222222222, N
64063, 177.95277777777778, N
64537, 179.26944444444445, N
64939, 180.38611111111112, N
65416, 181.7111111111111, N
65872, 182.9777777777778, N
66256, 184.04444444444445, N
66621, 185.05833333333334, N
66990, 186.08333333333334, N
67346, 187.07222222222222, N
67717, 188.1027777777778, N
68228, 189.5222222222222, N
68704, 190.84444444444443, N
69206, 192.23888888888888, N
69679, 193.55277777777778, N
70151, 194.86388888888888, N
70650, 196.25, N
71094, 197.48333333333332, N
71529, 198.69166666666666, N
72010, 200.02777777777777, N
72463, 201.2861111111111, N
72885, 202.45833333333334, N
73328, 203.6888888888889, N
73741, 204.8361111111111, N
74135, 205.93055555555554, N
74599, 207.21944444444443, N
75008, 208.35555555555555, N
75378, 209.38333333333333, N
75759, 210.44166666666666, N
76128, 211.46666666666667, N
76633, 212.86944444444444, N
77109, 214.19166666666666, N
77576, 215.48888888888888, N
78072, 216.86666666666667, N
78529, 218.13611111111112, N
78983, 219.3972222222222, N
79430, 220.63888888888889, N
79838, 221.7722222222222, N
80298, 223.05, N
80728, 224.24444444444444, N
81137, 225.38055555555556, N
81557, 226.54722222222222, N
82010, 227.80555555555554, N
82405, 228.90277777777777, N
82803, 230.00833333333333, N
83171, 231.03055555555557, N
83526, 232.01666666666668, N
83903, 233.0638888888889, N
84267, 234.075, N
84654, 235.15, N
85145, 236.51388888888889, N
85614, 237.81666666666666, N
86105, 239.18055555555554, N
86590, 240.52777777777777, N
87025, 241.73611111111111, N
87455, 242.93055555555554, N
87920, 244.22222222222223, N
88346, 245.40555555555557, N
88779, 246.60833333333332, N
89228, 247.85555555555555, N
89653, 249.0361111111111, N
90069, 250.19166666666666, N
90543, 251.50833333333333, N
90975, 252.70833333333334, N
91383, 253.84166666666667, N
91828, 255.07777777777778, N
92286, 256.35, N
92700, 257.5, N
93193, 258.86944444444447, N
93628, 260.0777777777778, N
94038, 261.21666666666664, N
94490, 262.47222222222223, N
94939, 263.71944444444443, N
95347, 264.85277777777776, N
95799, 266.10833333333335, N
96244, 267.34444444444443, N
96652, 268.47777777777776, N
97105, 269.7361111111111, N
97505, 270.84722222222223, N
97882, 271.89444444444445, N
98251, 272.9194444444444, N
98606, 273.90555555555557, N
98970, 274.9166666666667, N
99325, 275.90277777777777, N
99686, 276.90555555555557, N
100046, 277.90555555555557, N
100410, 278.9166666666667, N
100915, 280.31944444444446, N
101373, 281.59166666666664, N
101842, 282.89444444444445, N
102338, 284.27222222222224, N
102792, 285.53333333333336, N
103270, 286.8611111111111, N
103768, 288.24444444444447, N
104211, 289.475, N
104662, 290.72777777777776, N
105119, 291.9972222222222, N
105541, 293.1694444444444, N
105988, 294.4111111111111, N
106467, 295.7416666666667, N
106907, 296.9638888888889, N
107361, 298.225, N
107841, 299.55833333333334, N
108286, 300.7944444444444, N
108742, 302.06111111111113, N
109231, 303.4194444444444, N
109660, 304.6111111111111, N
110130, 305.9166666666667, N
110592, 307.2, N
111014, 308.3722222222222, N
111463, 309.61944444444447, N
111888, 310.8, N
112252, 311.81111111111113, N
112611, 312.80833333333334, N
112979, 313.8305555555556, N
113336, 314.8222222222222, N
113752, 315.97777777777776, N
114278, 317.43888888888887, N
114760, 318.77777777777777, N
115241, 320.1138888888889, N
115698, 321.3833333333333, N
116156, 322.65555555555557, N
116635, 323.9861111111111, N
117078, 325.21666666666664, N
117519, 326.44166666666666, N
117975, 327.7083333333333, N
118392, 328.8666666666667, N
118851, 330.14166666666665, N
119321, 331.4472222222222, N
119745, 332.625, N
120206, 333.90555555555557, N
120663, 335.175, N
121084, 336.34444444444443, N
121557, 337.65833333333336, N
122019, 338.94166666666666, N
122439, 340.10833333333335, N
122871, 341.30833333333334, N
123261, 342.39166666666665, N
123617, 343.38055555555553, N
123987, 344.40833333333336, N
124355, 345.43055555555554, N
124743, 346.5083333333333, N
125284, 348.0111111111111, N
125775, 349.375, N
126258, 350.71666666666664, N
126751, 352.0861111111111, N
127192, 353.31111111111113, N
127677, 354.65833333333336, N
128147, 355.9638888888889, N
128575, 357.15277777777777, N
129025, 358.40277777777777, N
129483, 359.675, N
129906, 360.85, N
130310, 361.97222222222223, N
130758, 363.21666666666664, N
131187, 364.40833333333336, N
131587, 365.51944444444445, N
132014, 366.7055555555556, N
132404, 367.7888888888889, N
132828, 368.96666666666664, N
133281, 370.225, N
133708, 371.4111111111111, N
134162, 372.6722222222222, N
134615, 373.93055555555554, N
135030, 375.0833333333333, N
135469, 376.3027777777778, N
135874, 377.4277777777778, N
136300, 378.6111111111111, N
136752, 379.8666666666667, N
137170, 381.02777777777777, N
137588, 382.18888888888887, N
138011, 383.3638888888889, N
138374, 384.3722222222222, N
138729, 385.35833333333335, N
139095, 386.375, N
139455, 387.375, N
139837, 388.43611111111113, N
140317, 389.76944444444445, N
140794, 391.09444444444443, N
141233, 392.31388888888887, N
141736, 393.7111111111111, N
142189, 394.96944444444443, N
142655, 396.2638888888889, N
143113, 397.5361111111111, N
143527, 398.68611111111113, N
143973, 399.925, N
144416, 401.15555555555557, N
144823, 402.2861111111111, N
145275, 403.5416666666667, N
145720, 404.77777777777777, N
146103, 405.84166666666664, N
146532, 407.03333333333336, N
146972, 408.25555555555553, N
147373, 409.36944444444447, N
147759, 410.44166666666666, N
148158, 411.55, N
148509, 412.525, N
148866, 413.51666666666665, N
149231, 414.53055555555557, N
149594, 415.5388888888889, N
149992, 416.64444444444445, N
150457, 417.93611111111113, N
150908, 419.18888888888887, N
151367, 420.4638888888889, N
151850, 421.80555555555554, N
152283, 423.0083333333333, N
152471, 423.53055555555557, V
152737, 424.26944444444445, N
153138, 425.3833333333333, N
153555, 426.5416666666667, N
153965, 427.68055555555554, N
154396, 428.8777777777778, N
154792, 429.97777777777776, N
155193, 431.09166666666664, N
155623, 432.2861111111111, N
156034, 433.4277777777778, N
156442, 434.56111111111113, N
156870, 435.75, N
157233, 436.7583333333333, N
157598, 437.77222222222224, N
157963, 438.7861111111111, N
158317, 439.76944444444445, N
158693, 440.81388888888887, N
159137, 442.0472222222222, N
159589, 443.3027777777778, N
160009, 444.46944444444443, N
160447, 445.68611111111113, N
160866, 446.85, N
161296, 448.0444444444444, N
161666, 449.0722222222222, N
162030, 450.0833333333333, N
162396, 451.1, N
162740, 452.05555555555554, N
163073, 452.98055555555555, N
163424, 453.9555555555556, N
163815, 455.0416666666667, N
164194, 456.09444444444443, N
164563, 457.11944444444447, N
164964, 458.23333333333335, N
165391, 459.4194444444444, N
165878, 460.77222222222224, N
166333, 462.0361111111111, N
166814, 463.3722222222222, N
167277, 464.65833333333336, N
167719, 465.8861111111111, N
168191, 467.1972222222222, N
168630, 468.4166666666667, N
169051, 469.5861111111111, N
169498, 470.8277777777778, N
169907, 471.9638888888889, N
170278, 472.99444444444447, N
170641, 474.0027777777778, N
170986, 474.9611111111111, N
171336, 475.93333333333334, N
171705, 476.9583333333333, N
172120, 478.1111111111111, N
172536, 479.26666666666665, N
172985, 480.5138888888889, N
173435, 481.7638888888889, N
173852, 482.9222222222222, N
174283, 484.11944444444447, N
174697, 485.26944444444445, N
175073, 486.31388888888887, N
175445, 487.34722222222223, N
175800, 488.3333333333333, N
176148, 489.3, N
176497, 490.26944444444445, N
176841, 491.225, N
177187, 492.18611111111113, N
177562, 493.22777777777776, N
178035, 494.5416666666667, N
178513, 495.86944444444447, N
179014, 497.2611111111111, N
179487, 498.575, N
179928, 499.8, N
180401, 501.1138888888889, N
180906, 502.51666666666665, N
181337, 503.7138888888889, N
181812, 505.03333333333336, N
182299, 506.3861111111111, N
182719, 507.5527777777778, N
183169, 508.8027777777778, N
183627, 510.075, N
184039, 511.21944444444443, N
184446, 512.35, N
184821, 513.3916666666667, N
185194, 514.4277777777778, N
185564, 515.4555555555555, N
185937, 516.4916666666667, N
186348, 517.6333333333333, N
186842, 519.0055555555556, N
187324, 520.3444444444444, N
187809, 521.6916666666667, N
188264, 522.9555555555555, N
188712, 524.2, N
189183, 525.5083333333333, N
189641, 526.7805555555556, N
190074, 527.9833333333333, N
190538, 529.2722222222222, N
190956, 530.4333333333333, N
191378, 531.6055555555556, N
191820, 532.8333333333334, N
192226, 533.9611111111111, N
192651, 535.1416666666667, N
193091, 536.3638888888889, N
193499, 537.4972222222223, N
193893, 538.5916666666667, N
194254, 539.5944444444444, N
194611, 540.5861111111111, N
194973, 541.5916666666667, N
195319, 542.5527777777778, N
195683, 543.5638888888889, N
196085, 544.6805555555555, N
196506, 545.85, N
197032, 547.3111111111111, N
197510, 548.6388888888889, N
197947, 549.8527777777778, N
198339, 550.9416666666667, N
198715, 551.9861111111111, N
199081, 553.0027777777777, N
199432, 553.9777777777778, N
199775, 554.9305555555555, N
200107, 555.8527777777778, N
200457, 556.825, N
200800, 557.7777777777778, N
201139, 558.7194444444444, N
201493, 559.7027777777778, N
201866, 560.7388888888889, N
202247, 561.7972222222222, N
202644, 562.9, N
203020, 563.9444444444445, N
203409, 565.025, N
203829, 566.1916666666667, N
204287, 567.4638888888888, N
204753, 568.7583333333333, N
205255, 570.1527777777778, N
205709, 571.4138888888889, N
206174, 572.7055555555555, N
206669, 574.0805555555555, N
207111, 575.3083333333333, N
207531, 576.475, N
207967, 577.6861111111111, N
208348, 578.7444444444444, N
208716, 579.7666666666667, N
209092, 580.8111111111111, N
209466, 581.85, N
209927, 583.1305555555556, N
210472, 584.6444444444444, N
210990, 586.0833333333334, N
211507, 587.5194444444444, N
211980, 588.8333333333334, N
212455, 590.1527777777778, N
212953, 591.5361111111112, N
213397, 592.7694444444444, N
213854, 594.0388888888889, N
214282, 595.2277777777778, N
214701, 596.3916666666667, N
215152, 597.6444444444444, N
215566, 598.7944444444445, N
215933, 599.8138888888889, N
216307, 600.8527777777778, N
216697, 601.9361111111111, N
217138, 603.1611111111112, N
217658, 604.6055555555556, N
218128, 605.9111111111112, N
218626, 607.2944444444445, N
219079, 608.5527777777778, N
219522, 609.7833333333333, N
219998, 611.1055555555556, N
220449, 612.3583333333333, N
220852, 613.4777777777778, N
221241, 614.5583333333333, N
221606, 615.5722222222222, N
221972, 616.5888888888888, N
222358, 617.6611111111112, N
222859, 619.0527777777778, N
223319, 620.3305555555555, N
223801, 621.6694444444445, N
224284, 623.0111111111111, N
224733, 624.2583333333333, N
225180, 625.5, N
225596, 626.6555555555556, N
226050, 627.9166666666666, N
226511, 629.1972222222222, N
226939, 630.3861111111111, N
227396, 631.6555555555556, N
227847, 632.9083333333333, N
228273, 634.0916666666667, N
228708, 635.3, N
229137, 636.4916666666667, N
229556, 637.6555555555556, N
230008, 638.9111111111112, N
230424, 640.0666666666667, N
230837, 641.2138888888888, N
231312, 642.5333333333333, N
231720, 643.6666666666666, N
232148, 644.8555555555556, N
232614, 646.15, N
233029, 647.3027777777778, N
233456, 648.4888888888889, N
233904, 649.7333333333333, N
234337, 650.9361111111111, N
234752, 652.0888888888888, N
235214, 653.3722222222223, N
235653, 654.5916666666667, N
236059, 655.7194444444444, N
236504, 656.9555555555555, N
236952, 658.2, N
237357, 659.325, N
237812, 660.5888888888888, N
238261, 661.8361111111111, N
238668, 662.9666666666667, N
239100, 664.1666666666666, N
239545, 665.4027777777778, N
239956, 666.5444444444445, N
240377, 667.7138888888888, N
240762, 668.7833333333333, N
241138, 669.8277777777778, N
241494, 670.8166666666667, N
241848, 671.8, N
242195, 672.7638888888889, N
242556, 673.7666666666667, N
242936, 674.8222222222222, N
243430, 676.1944444444445, N
243919, 677.5527777777778, N
244408, 678.9111111111112, N
244845, 680.125, N
245286, 681.35, N
245764, 682.6777777777778, N
246198, 683.8833333333333, N
246636, 685.1, N
247106, 686.4055555555556, N
247529, 687.5805555555555, N
247996, 688.8777777777777, N
248485, 690.2361111111111, N
248894, 691.3722222222223, N
249356, 692.6555555555556, N
249824, 693.9555555555555, N
250243, 695.1194444444444, N
250700, 696.3888888888889, N
251190, 697.75, N
251614, 698.9277777777778, N
252075, 700.2083333333334, N
252515, 701.4305555555555, N
252936, 702.6, N
253381, 703.8361111111111, N
253815, 705.0416666666666, N
254221, 706.1694444444445, N
254666, 707.4055555555556, N
255107, 708.6305555555556, N
255516, 709.7666666666667, N
255979, 711.0527777777778, N
256430, 712.3055555555555, N
256840, 713.4444444444445, N
257272, 714.6444444444444, N
257737, 715.9361111111111, N
258155, 717.0972222222222, N
258619, 718.3861111111111, N
259060, 719.6111111111111, N
259468, 720.7444444444444, N
259921, 722.0027777777777, N
260338, 723.1611111111112, N
260738, 724.2722222222222, N
261168, 725.4666666666667, N
261570, 726.5833333333334, N
261958, 727.6611111111112, N
262382, 728.8388888888888, N
262795, 729.9861111111111, N
263203, 731.1194444444444, N
263641, 732.3361111111111, N
264076, 733.5444444444445, N
264482, 734.6722222222222, N
264947, 735.9638888888888, N
265398, 737.2166666666667, N
265822, 738.3944444444444, N
266296, 739.7111111111111, N
266756, 740.9888888888889, N
267167, 742.1305555555556, N
267617, 743.3805555555556, N
268047, 744.575, N
268452, 745.7, N
268891, 746.9194444444445, N
269323, 748.1194444444444, N
269725, 749.2361111111111, N
270166, 750.4611111111111, N
270651, 751.8083333333333, N
271067, 752.9638888888888, N
271508, 754.1888888888889, N
271962, 755.45, N
272392, 756.6444444444444, N
272792, 757.7555555555556, N
273249, 759.025, N
273674, 760.2055555555555, N
274027, 761.1861111111111, N
274394, 762.2055555555555, N
274737, 763.1583333333333, N
275076, 764.1, N
275427, 765.075, N
275785, 766.0694444444445, N
276263, 767.3972222222222, N
276648, 768.4666666666667, N
277034, 769.5388888888889, N
277431, 770.6416666666667, N
277879, 771.8861111111111, N
278336, 773.1555555555556, N
278764, 774.3444444444444, N
279217, 775.6027777777778, N
279655, 776.8194444444445, N
280080, 778.0, N
280521, 779.225, N
280983, 780.5083333333333, N
281401, 781.6694444444445, N
281890, 783.0277777777778, N
282385, 784.4027777777778, N
282839, 785.6638888888889, N
283328, 787.0222222222222, N
283801, 788.3361111111111, N
284263, 789.6194444444444, N
284738, 790.9388888888889, N
285201, 792.225, N
285662, 793.5055555555556, N
286101, 794.725, N
286573, 796.0361111111112, N
287011, 797.2527777777777, N
287482, 798.5611111111111, N
287949, 799.8583333333333, N
288381, 801.0583333333333, N
288813, 802.2583333333333, N
289274, 803.5388888888889, N
289682, 804.6722222222222, N
290083, 805.7861111111112, N
290473, 806.8694444444444, N
290822, 807.8388888888888, N
291178, 808.8277777777778, N
291529, 809.8027777777778, N
291872, 810.7555555555556, N
292249, 811.8027777777778, N
292781, 813.2805555555556, N
293283, 814.675, N
293795, 816.0972222222222, N
294273, 817.425, N
294718, 818.6611111111112, N
295183, 819.9527777777778, N
295632, 821.2, N
296070, 822.4166666666666, N
296526, 823.6833333333333, N
296955, 824.875, N
297382, 826.0611111111111, N
297867, 827.4083333333333, N
298299, 828.6083333333333, N
298779, 829.9416666666667, N
299257, 831.2694444444444, N
299709, 832.525, N
300156, 833.7666666666667, N
300625, 835.0694444444445, N
301050, 836.25, N
301522, 837.5611111111111, N
301974, 838.8166666666667, N
302386, 839.9611111111111, N
302827, 841.1861111111111, N
303275, 842.4305555555555, N
303675, 843.5416666666666, N
304112, 844.7555555555556, N
304551, 845.975, N
304965, 847.125, N
305432, 848.4222222222222, N
305894, 849.7055555555555, N
306331, 850.9194444444445, N
306785, 852.1805555555555, N
307255, 853.4861111111111, N
307676, 854.6555555555556, N
308113, 855.8694444444444, N
308545, 857.0694444444445, N
308955, 858.2083333333334, N
309354, 859.3166666666667, N
309804, 860.5666666666667, N
310266, 861.85, N
310684, 863.0111111111111, N
311059, 864.0527777777778, N
311413, 865.0361111111112, N
311772, 866.0333333333333, N
312149, 867.0805555555555, N
312592, 868.3111111111111, N
313002, 869.45, N
313471, 870.7527777777777, N
313945, 872.0694444444445, N
314339, 873.1638888888889, N
314756, 874.3222222222222, N
315174, 875.4833333333333, N
315564, 876.5666666666667, N
315976, 877.7111111111111, N
316400, 878.8888888888889, N
316801, 880.0027777777777, N
317252, 881.2555555555556, N
317691, 882.475, N
318093, 883.5916666666667, N
318558, 884.8833333333333, N
319014, 886.15, N
319431, 887.3083333333333, N
319881, 888.5583333333333, N
320332, 889.8111111111111, N
320743, 890.9527777777778, N
321208, 892.2444444444444, N
321648, 893.4666666666667, N
322077, 894.6583333333333, N
322530, 895.9166666666666, N
322974, 897.15, N
323398, 898.3277777777778, N
323893, 899.7027777777778, N
324343, 900.9527777777778, N
324813, 902.2583333333333, N
325283, 903.5638888888889, N
325722, 904.7833333333333, N
326150, 905.9722222222222, N
326645, 907.3472222222222, N
327095, 908.5972222222222, N
327507, 909.7416666666667, N
327984, 911.0666666666667, N
328447, 912.3527777777778, N
328867, 913.5194444444444, N
329320, 914.7777777777778, N
329756, 915.9888888888889, N
330146, 917.0722222222222, N
330578, 918.2722222222222, N
331005, 919.4583333333334, N
331413, 920.5916666666667, N
331869, 921.8583333333333, N
332312, 923.0888888888888, N
332734, 924.2611111111111, N
333201, 925.5583333333333, N
333623, 926.7305555555556, N
334026, 927.85, N
334469, 929.0805555555555, N
334896, 930.2666666666667, N
335301, 931.3916666666667, N
335759, 932.6638888888889, N
336212, 933.9222222222222, N
336625, 935.0694444444445, N
337096, 936.3777777777777, N
337568, 937.6888888888889, N
338001, 938.8916666666667, N
338463, 940.175, N
338929, 941.4694444444444, N
339351, 942.6416666666667, N
339822, 943.95, N
340275, 945.2083333333334, N
340679, 946.3305555555555, N
341115, 947.5416666666666, N
341587, 948.8527777777778, N
342005, 950.0138888888889, N
342415, 951.1527777777778, N
342857, 952.3805555555556, N
343278, 953.55, N
343684, 954.6777777777778, N
344142, 955.95, N
344591, 957.1972222222222, N
344993, 958.3138888888889, N
345450, 959.5833333333334, N
345886, 960.7944444444445, N
346285, 961.9027777777778, N
346694, 963.0388888888889, N
347115, 964.2083333333334, N
347500, 965.2777777777778, N
347883, 966.3416666666667, N
348304, 967.5111111111111, N
348727, 968.6861111111111, N
349119, 969.775, N
349566, 971.0166666666667, N
350024, 972.2888888888889, N
350439, 973.4416666666667, N
350898, 974.7166666666667, N
351365, 976.0138888888889, N
351784, 977.1777777777778, N
352246, 978.4611111111111, N
352717, 979.7694444444444, N
353126, 980.9055555555556, N
353581, 982.1694444444445, N
354038, 983.4388888888889, N
354434, 984.5388888888889, N
354855, 985.7083333333334, N
355302, 986.95, N
355708, 988.0777777777778, N
356152, 989.3111111111111, N
356624, 990.6222222222223, N
357037, 991.7694444444444, N
357467, 992.9638888888888, N
357909, 994.1916666666667, N
358351, 995.4194444444445, N
358769, 996.5805555555555, N
359228, 997.8555555555556, N
359678, 999.1055555555556, N
360095, 1000.2638888888889, N
360553, 1001.5361111111112, N
361011, 1002.8083333333333, N
361414, 1003.9277777777778, N
361836, 1005.1, N
362264, 1006.2888888888889, N
362665, 1007.4027777777778, N
363075, 1008.5416666666666, N
363509, 1009.7472222222223, N
363928, 1010.9111111111112, N
364319, 1011.9972222222223, N
364728, 1013.1333333333333, N
365146, 1014.2944444444445, N
365540, 1015.3888888888889, N
365986, 1016.6277777777777, N
366463, 1017.9527777777778, N
366908, 1019.1888888888889, N
367358, 1020.4388888888889, N
367808, 1021.6888888888889, N
368215, 1022.8194444444445, N
368655, 1024.0416666666667, N
369095, 1025.263888888889, N
369508, 1026.411111111111, N
369914, 1027.5388888888888, N
370339, 1028.7194444444444, N
370766, 1029.9055555555556, N
371169, 1031.025, N
371617, 1032.2694444444444, N
372050, 1033.4722222222222, N
372464, 1034.6222222222223, N
372925, 1035.9027777777778, N
373363, 1037.1194444444445, N
373766, 1038.2388888888888, N
374194, 1039.4277777777777, N
374627, 1040.6305555555555, N
375046, 1041.7944444444445, N
375506, 1043.0722222222223, N
375973, 1044.3694444444445, N
376396, 1045.5444444444445, N
376824, 1046.7333333333333, N
377237, 1047.8805555555555, N
377586, 1048.85, N
377950, 1049.861111111111, N
378297, 1050.825, N
378621, 1051.725, N
378960, 1052.6666666666667, N
379297, 1053.6027777777779, N
379686, 1054.6833333333334, N
380085, 1055.7916666666667, N
380601, 1057.225, N
381094, 1058.5944444444444, N
381558, 1059.8833333333334, N
382052, 1061.2555555555555, N
382538, 1062.6055555555556, N
383007, 1063.9083333333333, N
383496, 1065.2666666666667, N
383941, 1066.5027777777777, N
384386, 1067.7388888888888, N
384830, 1068.9722222222222, N
385227, 1070.075, N
385646, 1071.2388888888888, N
386074, 1072.4277777777777, N
386474, 1073.5388888888888, N
386897, 1074.713888888889, N
387319, 1075.8861111111112, N
387718, 1076.9944444444445, N
388187, 1078.2972222222222, N
388615, 1079.486111111111, N
389028, 1080.6333333333334, N
389487, 1081.9083333333333, N
389965, 1083.236111111111, N
390389, 1084.4138888888888, N
390885, 1085.7916666666667, N
391359, 1087.1083333333333, N
391797, 1088.325, N
392255, 1089.5972222222222, N
392708, 1090.8555555555556, N
393115, 1091.986111111111, N
393598, 1093.3277777777778, N
394064, 1094.6222222222223, N
394482, 1095.7833333333333, N
394948, 1097.0777777777778, N
395376, 1098.2666666666667, N
395779, 1099.3861111111112, N
396229, 1100.6361111111112, N
396663, 1101.8416666666667, N
397051, 1102.9194444444445, N
397509, 1104.1916666666666, N
397954, 1105.4277777777777, N
398328, 1106.4666666666667, N
398688, 1107.4666666666667, N
399045, 1108.4583333333333, N
399396, 1109.4333333333334, N
399748, 1110.411111111111, N
400147, 1111.5194444444444, N
400561, 1112.6694444444445, N
401098, 1114.161111111111, N
401591, 1115.5305555555556, N
402079, 1116.8861111111112, N
402572, 1118.2555555555555, N
403037, 1119.5472222222222, N
403512, 1120.8666666666666, N
403967, 1122.1305555555555, N
404384, 1123.2888888888888, N
404827, 1124.5194444444444, N
405259, 1125.7194444444444, N
405664, 1126.8444444444444, N
406129, 1128.1361111111112, N
406554, 1129.3166666666666, N
406936, 1130.3777777777777, N
407339, 1131.4972222222223, N
407793, 1132.7583333333334, N
408202, 1133.8944444444444, N
408661, 1135.1694444444445, N
409172, 1136.588888888889, N
409621, 1137.8361111111112, N
410054, 1139.0388888888888, N
410521, 1140.3361111111112, N
410944, 1141.5111111111112, N
411371, 1142.6972222222223, N
411799, 1143.8861111111112, N
412180, 1144.9444444444443, N
412592, 1146.088888888889, N
413082, 1147.45, N
413542, 1148.7277777777779, N
413977, 1149.9361111111111, N
414443, 1151.2305555555556, N
414877, 1152.4361111111111, N
415283, 1153.5638888888889, N
415715, 1154.763888888889, N
416169, 1156.025, N
416575, 1157.1527777777778, N
417049, 1158.4694444444444, N
417472, 1159.6444444444444, N
417905, 1160.8472222222222, N
418371, 1162.1416666666667, N
418798, 1163.3277777777778, N
419233, 1164.536111111111, N
419678, 1165.7722222222221, N
420095, 1166.9305555555557, N
420482, 1168.0055555555555, N
420905, 1169.1805555555557, N
421358, 1170.4388888888889, N
421776, 1171.6, N
422218, 1172.8277777777778, N
422670, 1174.0833333333333, N
423081, 1175.225, N
423495, 1176.375, N
423919, 1177.5527777777777, N
424329, 1178.6916666666666, N
424718, 1179.7722222222221, N
425138, 1180.9388888888889, N
425557, 1182.1027777777779, N
425939, 1183.1638888888888, N
426372, 1184.3666666666666, N
426809, 1185.5805555555555, N
427209, 1186.6916666666666, N
427638, 1187.8833333333334, N
428093, 1189.1472222222221, N
428490, 1190.25, N
428911, 1191.4194444444445, N
429296, 1192.4888888888888, N
429645, 1193.4583333333333, N
429998, 1194.4388888888889, N
430352, 1195.4222222222222, N
430696, 1196.3777777777777, N
431122, 1197.5611111111111, N
431643, 1199.0083333333334, N
432129, 1200.3583333333333, N
432625, 1201.736111111111, N
433102, 1203.0611111111111, N
433544, 1204.2888888888888, N
434023, 1205.6194444444445, N
434446, 1206.7944444444445, N
434861, 1207.9472222222223, N
435297, 1209.1583333333333, N
435762, 1210.45, N
436167, 1211.575, N
436629, 1212.8583333333333, N
437080, 1214.111111111111, N
437486, 1215.2388888888888, N
437924, 1216.4555555555555, N
438371, 1217.6972222222223, N
438763, 1218.786111111111, N
439175, 1219.9305555555557, N
439606, 1221.1277777777777, N
440014, 1222.2611111111112, N
440423, 1223.3972222222221, N
440901, 1224.725, N
441398, 1226.1055555555556, N
441835, 1227.3194444444443, N
442312, 1228.6444444444444, N
442777, 1229.9361111111111, N
443204, 1231.1222222222223, N
443661, 1232.3916666666667, N
444135, 1233.7083333333333, N
444536, 1234.8222222222223, N
444993, 1236.0916666666667, N
445443, 1237.3416666666667, N
445846, 1238.4611111111112, N
446290, 1239.6944444444443, N
446734, 1240.9277777777777, N
447137, 1242.0472222222222, N
447527, 1243.1305555555555, N
447981, 1244.3916666666667, N
448447, 1245.6861111111111, N
448859, 1246.8305555555555, N
449320, 1248.111111111111, N
449781, 1249.3916666666667, N
450183, 1250.5083333333334, N
450643, 1251.786111111111, N
451097, 1253.0472222222222, N
451497, 1254.1583333333333, N
451955, 1255.4305555555557, N
452399, 1256.6638888888888, N
452803, 1257.786111111111, N
453220, 1258.9444444444443, N
453694, 1260.2611111111112, N
454129, 1261.4694444444444, N
454557, 1262.6583333333333, N
455005, 1263.9027777777778, N
455437, 1265.1027777777779, N
455829, 1266.1916666666666, N
456262, 1267.3944444444444, N
456687, 1268.575, N
457072, 1269.6444444444444, N
457488, 1270.8, N
457907, 1271.963888888889, N
458293, 1273.036111111111, N
458690, 1274.138888888889, N
459135, 1275.375, N
459557, 1276.5472222222222, N
459968, 1277.6888888888889, N
460403, 1278.8972222222221, N
460857, 1280.1583333333333, N
461262, 1281.2833333333333, N
461746, 1282.6277777777777, N
462213, 1283.925, N
462627, 1285.075, N
463081, 1286.3361111111112, N
463560, 1287.6666666666667, N
463994, 1288.8722222222223, N
464451, 1290.1416666666667, N
464926, 1291.4611111111112, N
465361, 1292.6694444444445, N
465777, 1293.825, N
466239, 1295.1083333333333, N
466694, 1296.3722222222223, N
467104, 1297.5111111111112, N
467553, 1298.7583333333334, N
468001, 1300.0027777777777, N
468402, 1301.1166666666666, N
468835, 1302.3194444444443, N
469269, 1303.525, N
469663, 1304.6194444444445, N
470108, 1305.8555555555556, N
470561, 1307.1138888888888, N
470989, 1308.3027777777777, N
471382, 1309.3944444444444, N
471822, 1310.6166666666666, N
472247, 1311.7972222222222, N
472645, 1312.9027777777778, N
473084, 1314.1222222222223, N
473534, 1315.3722222222223, N
473940, 1316.5, N
474365, 1317.6805555555557, N
474807, 1318.9083333333333, N
475213, 1320.036111111111, N
475622, 1321.1722222222222, N
476058, 1322.3833333333334, N
476437, 1323.4361111111111, N
476800, 1324.4444444444443, N
477154, 1325.4277777777777, N
477496, 1326.3777777777777, N
477844, 1327.3444444444444, N
478192, 1328.3111111111111, N
478544, 1329.2888888888888, N
478890, 1330.25, N
479239, 1331.2194444444444, N
479617, 1332.2694444444444, N
480143, 1333.7305555555556, N
480608, 1335.0222222222221, N
481066, 1336.2944444444445, N
481569, 1337.6916666666666, N
482028, 1338.9666666666667, N
482485, 1340.236111111111, N
482990, 1341.638888888889, N
483463, 1342.9527777777778, N
483869, 1344.0805555555555, N
484251, 1345.1416666666667, N
484623, 1346.175, N
484960, 1347.111111111111, N
485307, 1348.075, N
485648, 1349.0222222222221, N
485992, 1349.9777777777779, N
486354, 1350.9833333333333, N
486735, 1352.0416666666667, N
487144, 1353.1777777777777, N
487673, 1354.6472222222221, N
488174, 1356.0388888888888, N
488645, 1357.3472222222222, N
489154, 1358.7611111111112, N
489628, 1360.0777777777778, N
490085, 1361.3472222222222, N
490560, 1362.6666666666667, N
491021, 1363.9472222222223, N
491506, 1365.2944444444445, N
491983, 1366.6194444444445, N
492411, 1367.8083333333334, N
492891, 1369.1416666666667, N
493355, 1370.4305555555557, N
493780, 1371.611111111111, N
494255, 1372.9305555555557, N
494686, 1374.1277777777777, N
495077, 1375.213888888889, N
495509, 1376.4138888888888, N
495947, 1377.6305555555555, N
496357, 1378.7694444444444, N
496819, 1380.0527777777777, N
497280, 1381.3333333333333, N
497696, 1382.4888888888888, N
498150, 1383.75, N
498581, 1384.9472222222223, N
498987, 1386.075, N
499457, 1387.3805555555555, N
499927, 1388.6861111111111, N
500341, 1389.8361111111112, N
500812, 1391.1444444444444, N
501262, 1392.3944444444444, N
501664, 1393.5111111111112, N
502095, 1394.7083333333333, N
502494, 1395.8166666666666, N
502880, 1396.888888888889, N
503313, 1398.0916666666667, N
503794, 1399.4277777777777, N
504198, 1400.55, N
504657, 1401.825, N
505119, 1403.1083333333333, N
505535, 1404.263888888889, N
505937, 1405.3805555555555, N
506315, 1406.4305555555557, N
506662, 1407.3944444444444, N
507003, 1408.3416666666667, N
507343, 1409.286111111111, N
507685, 1410.236111111111, N
508049, 1411.2472222222223, N
508556, 1412.6555555555556, N
509074, 1414.0944444444444, N
509538, 1415.3833333333334, N
510046, 1416.7944444444445, N
510545, 1418.1805555555557, N
511010, 1419.4722222222222, N
511480, 1420.7777777777778, N
511964, 1422.1222222222223, N
512411, 1423.3638888888888, N
512866, 1424.6277777777777, N
513311, 1425.8638888888888, N
513743, 1427.0638888888889, N
514154, 1428.2055555555555, N
514603, 1429.4527777777778, N
515045, 1430.6805555555557, N
515450, 1431.8055555555557, N
515913, 1433.0916666666667, N
516360, 1434.3333333333333, N
516778, 1435.4944444444445, N
517185, 1436.625, N
517576, 1437.7111111111112, N
517952, 1438.7555555555555, N
518360, 1439.888888888889, N
518746, 1440.9611111111112, N
519175, 1442.1527777777778, N
519611, 1443.3638888888888, N
520014, 1444.4833333333333, N
520408, 1445.5777777777778, N
520802, 1446.6722222222222, N
521168, 1447.6888888888889, N
521535, 1448.7083333333333, N
521904, 1449.7333333333333, N
522295, 1450.8194444444443, N
522663, 1451.8416666666667, N
523023, 1452.8416666666667, N
523415, 1453.9305555555557, N
523794, 1454.9833333333333, N
524161, 1456.0027777777777, N
524523, 1457.0083333333334, N
524901, 1458.0583333333334, N
525272, 1459.088888888889, N
525613, 1460.036111111111, N
525977, 1461.0472222222222, N
526331, 1462.0305555555556, N
526665, 1462.9583333333333, N
527019, 1463.9416666666666, N
527367, 1464.9083333333333, N
527727, 1465.9083333333333, N
528087, 1466.9083333333333, N
528454, 1467.9277777777777, N
528846, 1469.0166666666667, N
529223, 1470.0638888888889, N
529598, 1471.1055555555556, N
530038, 1472.3277777777778, N
530505, 1473.625, N
530958, 1474.8833333333334, N
531448, 1476.2444444444445, N
531915, 1477.5416666666667, N
532313, 1478.6472222222221, N
532749, 1479.8583333333333, N
533184, 1481.0666666666666, N
533599, 1482.2194444444444, N
534075, 1483.5416666666667, N
534530, 1484.8055555555557, N
534992, 1486.088888888889, N
535425, 1487.2916666666667, N
535828, 1488.411111111111, N
536267, 1489.6305555555555, N
536739, 1490.9416666666666, N
537231, 1492.3083333333334, N
537708, 1493.6333333333334, N
538196, 1494.9888888888888, N
538580, 1496.0555555555557, N
538965, 1497.125, N
539350, 1498.1944444444443, N
539722, 1499.2277777777779, N
540116, 1500.3222222222223, N
540594, 1501.65, N
541089, 1503.025, N
541612, 1504.4777777777779, N
542120, 1505.888888888889, N
542591, 1507.1972222222223, N
543085, 1508.5694444444443, N
543547, 1509.8527777777779, N
543965, 1511.013888888889, N
544423, 1512.286111111111, N
544865, 1513.513888888889, N
545272, 1514.6444444444444, N
545684, 1515.7888888888888, N
545876, 1516.3222222222223, V
546120, 1517.0, N
546482, 1518.0055555555555, N
546863, 1519.0638888888889, N
547249, 1520.1361111111112, N
547606, 1521.1277777777777, N
547961, 1522.1138888888888, N
548332, 1523.1444444444444, N
548700, 1524.1666666666667, N
549080, 1525.2222222222222, N
549529, 1526.4694444444444, N
549999, 1527.775, N
550476, 1529.1, N
550946, 1530.4055555555556, N
551387, 1531.6305555555555, N
551818, 1532.8277777777778, N
552306, 1534.1833333333334, N
552774, 1535.4833333333333, N
553193, 1536.6472222222221, N
553651, 1537.9194444444445, N
554075, 1539.0972222222222, N
554474, 1540.2055555555555, N
554914, 1541.4277777777777, N
555353, 1542.6472222222221, N
555767, 1543.7972222222222, N
556225, 1545.0694444444443, N
556707, 1546.4083333333333, N
557096, 1547.4888888888888, N
557457, 1548.4916666666666, N
557819, 1549.4972222222223, N
558176, 1550.4888888888888, N
558551, 1551.5305555555556, N
558949, 1552.6361111111112, N
559442, 1554.0055555555555, N
559942, 1555.3944444444444, N
560447, 1556.7972222222222, N
560927, 1558.1305555555555, N
561429, 1559.525, N
561901, 1560.8361111111112, N
562340, 1562.0555555555557, N
562786, 1563.2944444444445, N
563246, 1564.5722222222223, N
563654, 1565.7055555555555, N
564089, 1566.9138888888888, N
564538, 1568.161111111111, N
564960, 1569.3333333333333, N
565345, 1570.4027777777778, N
565716, 1571.4333333333334, N
566087, 1572.463888888889, N
566441, 1573.4472222222223, N
566818, 1574.4944444444445, N
567238, 1575.661111111111, N
567664, 1576.8444444444444, N
568196, 1578.3222222222223, N
568668, 1579.6333333333334, N
569129, 1580.9138888888888, N
569616, 1582.2666666666667, N
570068, 1583.5222222222221, N
570497, 1584.713888888889, N
570955, 1585.986111111111, N
571373, 1587.1472222222221, N
571779, 1588.275, N
572238, 1589.55, N
572726, 1590.9055555555556, N
573155, 1592.0972222222222, N
573636, 1593.4333333333334, N
574074, 1594.65, N
574534, 1595.9277777777777, N
574999, 1597.2194444444444, N
575427, 1598.4083333333333, N
575928, 1599.8, N
576416, 1601.1555555555556, N
576838, 1602.3277777777778, N
577295, 1603.5972222222222, N
577737, 1604.825, N
578111, 1605.8638888888888, N
578473, 1606.8694444444445, N
578841, 1607.8916666666667, N
579200, 1608.888888888889, N
579586, 1609.9611111111112, N
580104, 1611.4, N
580573, 1612.7027777777778, N
581070, 1614.0833333333333, N
581535, 1615.375, N
581979, 1616.6083333333333, N
582461, 1617.9472222222223, N
582890, 1619.138888888889, N
583301, 1620.2805555555556, N
583764, 1621.5666666666666, N
584215, 1622.8194444444443, N
584649, 1624.025, N
585119, 1625.3305555555555, N
585577, 1626.6027777777779, N
585993, 1627.7583333333334, N
586452, 1629.0333333333333, N
586880, 1630.2222222222222, N
587294, 1631.3722222222223, N
587736, 1632.6, N
588156, 1633.7666666666667, N
588561, 1634.8916666666667, N
589012, 1636.1444444444444, N
589433, 1637.3138888888889, N
589844, 1638.4555555555555, N
590311, 1639.7527777777777, N
590756, 1640.9888888888888, N
591182, 1642.1722222222222, N
591643, 1643.4527777777778, N
592101, 1644.725, N
592508, 1645.8555555555556, N
592961, 1647.1138888888888, N
593373, 1648.2583333333334, N
593765, 1649.3472222222222, N
594194, 1650.5388888888888, N
594620, 1651.7222222222222, N
595022, 1652.838888888889, N
595488, 1654.1333333333334, N
595968, 1655.4666666666667, N
596380, 1656.611111111111, N
596837, 1657.8805555555555, N
597315, 1659.2083333333333, N
597741, 1660.3916666666667, N
598165, 1661.5694444444443, N
598635, 1662.875, N
599060, 1664.0555555555557, N
599444, 1665.1222222222223, N
599851, 1666.2527777777777, N
600047, 1666.7972222222222, V
600265, 1667.4027777777778, N
600572, 1668.2555555555555, N
600923, 1669.2305555555556, N
601286, 1670.2388888888888, N
601682, 1671.338888888889, N
602230, 1672.861111111111, N
602724, 1674.2333333333333, N
603231, 1675.6416666666667, N
603736, 1677.0444444444445, N
604203, 1678.3416666666667, N
604699, 1679.7194444444444, N
605178, 1681.05, N
605616, 1682.2666666666667, N
606057, 1683.4916666666666, N
606503, 1684.7305555555556, N
606931, 1685.9194444444445, N
607346, 1687.0722222222223, N
607789, 1688.3027777777777, N
608242, 1689.5611111111111, N
608660, 1690.7222222222222, N
609129, 1692.025, N
609586, 1693.2944444444445, N
609999, 1694.4416666666666, N
610430, 1695.638888888889, N
610850, 1696.8055555555557, N
611243, 1697.8972222222221, N
611671, 1699.0861111111112, N
612084, 1700.2333333333333, N
612492, 1701.3666666666666, N
612945, 1702.625, N
613386, 1703.85, N
613807, 1705.0194444444444, N
614262, 1706.2833333333333, N
614691, 1707.475, N
615082, 1708.5611111111111, N
615518, 1709.7722222222221, N
615924, 1710.9, N
616322, 1712.0055555555555, N
616747, 1713.1861111111111, N
617152, 1714.3111111111111, N
617521, 1715.3361111111112, N
617884, 1716.3444444444444, N
618247, 1717.3527777777779, N
618598, 1718.3277777777778, N
618976, 1719.3777777777777, N
619464, 1720.7333333333333, N
619938, 1722.05, N
620439, 1723.4416666666666, N
620928, 1724.8, N
621357, 1725.9916666666666, N
621827, 1727.2972222222222, N
622290, 1728.5833333333333, N
622715, 1729.763888888889, N
623149, 1730.9694444444444, N
623618, 1732.2722222222221, N
624044, 1733.4555555555555, N
624446, 1734.5722222222223, N
624892, 1735.8111111111111, N
625326, 1737.0166666666667, N
625727, 1738.1305555555555, N
626164, 1739.3444444444444, N
626574, 1740.4833333333333, N
626974, 1741.5944444444444, N
627409, 1742.8027777777777, N
627839, 1743.9972222222223, N
628255, 1745.1527777777778, N
628721, 1746.4472222222223, N
629216, 1747.8222222222223, N
629658, 1749.05, N
630088, 1750.2444444444445, N
630523, 1751.4527777777778, N
630939, 1752.6083333333333, N
631365, 1753.7916666666667, N
631852, 1755.1444444444444, N
632309, 1756.4138888888888, N
632750, 1757.638888888889, N
633206, 1758.9055555555556, N
633647, 1760.1305555555555, N
634055, 1761.263888888889, N
634502, 1762.5055555555555, N
634949, 1763.7472222222223, N
635359, 1764.8861111111112, N
635790, 1766.0833333333333, N
636225, 1767.2916666666667, N
636624, 1768.4, N
637056, 1769.6, N
637517, 1770.8805555555555, N
637934, 1772.0388888888888, N
638322, 1773.1166666666666, N
638744, 1774.2888888888888, N
639156, 1775.4333333333334, N
639560, 1776.5555555555557, N
639973, 1777.7027777777778, N
640376, 1778.8222222222223, N
640741, 1779.8361111111112, N
641078, 1780.7722222222221, N
641424, 1781.7333333333333, N
641757, 1782.6583333333333, N
642098, 1783.6055555555556, N
642453, 1784.5916666666667, N
642815, 1785.5972222222222, N
643218, 1786.7166666666667, N
643627, 1787.8527777777779, N
644007, 1788.9083333333333, N
644401, 1790.0027777777777, N
644786, 1791.0722222222223, N
645149, 1792.0805555555555, N
645504, 1793.0666666666666, N
645952, 1794.3111111111111, N
646355, 1795.4305555555557, N
646736, 1796.4888888888888, N
647117, 1797.5472222222222, N
647505, 1798.625, N
647876, 1799.6555555555556, N
648247, 1800.6861111111111, N
648626, 1801.7388888888888, N
648997, 1802.7694444444444, N
649342, 1803.7277777777779, N
649689, 1804.6916666666666, N
