100, 0.2777777777777778, +
243, 0.675, R
693, 1.925, R
1119, 3.1083333333333334, R
1552, 4.311111111111111, R
1989, 5.525, R
2444, 6.788888888888889, R
2885, 8.01388888888889, R
3307, 9.186111111111112, R
3744, 10.4, R
4156, 11.544444444444444, R
4594, 12.761111111111111, R
5016, 13.933333333333334, R
5457, 15.158333333333333, R
5878, 16.32777777777778, R
6327, 17.575, R
6756, 18.766666666666666, R
7200, 20.0, R
7633, 21.20277777777778, R
8072, 22.42222222222222, R
8500, 23.61111111111111, R
8936, 24.822222222222223, R
9356, 25.988888888888887, R
9794, 27.205555555555556, R
10220, 28.38888888888889, R
10661, 29.613888888888887, R
11087, 30.79722222222222, R
11517, 31.991666666666667, R
11952, 33.2, R
12386, 34.40555555555556, R
12812, 35.58888888888889, R
13236, 36.766666666666666, R
13671, 37.975, R
14100, 39.166666666666664, R
14528, 40.355555555555554, R
14981, 41.61388888888889, R
15419, 42.830555555555556, R
15865, 44.06944444444444, R
16316, 45.32222222222222, R
16768, 46.577777777777776, R
17200, 47.77777777777778, R
17650, 49.02777777777778, R
18089, 50.24722222222222, R
18538, 51.49444444444445, R
18983, 52.730555555555554, R
19416, 53.93333333333333, R
19869, 55.19166666666667, R
20318, 56.43888888888889, R
20772, 57.7, R
21222, 58.95, R
21651, 60.141666666666666, R
22093, 61.36944444444445, R
22532, 62.58888888888889, R
22988, 63.855555555555554, R
23423, 65.06388888888888, R
23898, 66.38333333333334, R
24362, 67.67222222222222, R
24815, 68.93055555555556, R
25252, 70.14444444444445, R
25688, 71.35555555555555, R
26108, 72.52222222222223, R
26540, 73.72222222222223, R
26953, 74.86944444444444, R
27396, 76.1, R
27852, 77.36666666666666, R
28278, 78.55, R
28726, 79.79444444444445, R
29139, 80.94166666666666, R
29575, 82.15277777777777, R
30022, 83.39444444444445, R
30450, 84.58333333333333, R
30888, 85.8, R
31319, 86.99722222222222, R
31755, 88.20833333333333, R
32196, 89.43333333333334, R
32642, 90.67222222222222, R
33085, 91.90277777777777, R
33517, 93.10277777777777, R
33957, 94.325, R
34397, 95.54722222222222, R
34843, 96.78611111111111, R
35266, 97.96111111111111, R
35689, 99.1361111111111, R
36127, 100.35277777777777, R
36586, 101.62777777777778, R
37033, 102.86944444444444, R
37480, 104.11111111111111, R
37934, 105.37222222222222, R
38370, 106.58333333333333, R
38826, 107.85, R
39276, 109.1, R
39717, 110.325, R
40173, 111.59166666666667, R
40637, 112.88055555555556, R
41088, 114.13333333333334, R
41516, 115.32222222222222, R
41960, 116.55555555555556, R
42380, 117.72222222222223, R
42823, 118.95277777777778, R
43248, 120.13333333333334, R
43680, 121.33333333333333, R
44110, 122.52777777777777, R
44557, 123.76944444444445, R
44975, 124.93055555555556, R
45423, 126.175, R
45862, 127.39444444444445, R
46298, 128.60555555555555, R
46746, 129.85, R
47170, 131.02777777777777, R
47608, 132.24444444444444, R
48057, 133.49166666666667, R
48492, 134.7, R
48928, 135.9111111111111, R
49347, 137.075, R
49787, 138.29722222222222, R
50211, 139.475, R
50645, 140.68055555555554, R
51074, 141.87222222222223, R
51507, 143.075, R
51951, 144.30833333333334, R
52382, 145.50555555555556, R
52827, 146.74166666666667, R
53246, 147.90555555555557, R
53666, 149.07222222222222, R
54105, 150.29166666666666, R
54533, 151.48055555555555, R
54979, 152.71944444444443, R
55394, 153.87222222222223, R
55831, 155.0861111111111, R
56275, 156.31944444444446, R
56710, 157.52777777777777, R
57144, 158.73333333333332, R
57571, 159.91944444444445, R
58017, 161.15833333333333, R
58436, 162.32222222222222, R
58873, 163.5361111111111, R
59295, 164.70833333333334, R
59722, 165.89444444444445, R
60161, 167.11388888888888, R
60587, 168.29722222222222, R
61020, 169.5, R
61431, 170.64166666666668, R
61871, 171.86388888888888, R
62300, 173.05555555555554, R
62732, 174.25555555555556, R
63153, 175.425, R
63575, 176.59722222222223, R
64008, 177.8, R
64422, 178.95, R
64867, 180.1861111111111, R
65286, 181.35, R
65712, 182.53333333333333, R
66146, 183.73888888888888, R
66580, 184.94444444444446, R
67013, 186.1472222222222, R
67445, 187.34722222222223, R
67891, 188.5861111111111, R
68321, 189.78055555555557, R
68763, 191.00833333333333, R
69199, 192.21944444444443, R
69623, 193.3972222222222, R
70070, 194.63888888888889, R
70513, 195.86944444444444, R
70945, 197.06944444444446, R
71383, 198.2861111111111, R
71830, 199.52777777777777, R
72265, 200.73611111111111, R
72716, 201.98888888888888, R
73143, 203.175, R
73576, 204.37777777777777, R
74005, 205.56944444444446, R
74433, 206.75833333333333, R
74879, 207.99722222222223, R
75305, 209.18055555555554, R
75749, 210.4138888888889, R
76201, 211.66944444444445, R
76663, 212.95277777777778, R
77102, 214.17222222222222, R
77545, 215.40277777777777, R
77990, 216.63888888888889, R
78423, 217.84166666666667, R
78873, 219.09166666666667, R
79310, 220.30555555555554, R
79768, 221.57777777777778, R
80228, 222.85555555555555, R
80678, 224.10555555555555, R
81121, 225.3361111111111, R
81560, 226.55555555555554, R
82007, 227.79722222222222, R
82443, 229.00833333333333, R
82881, 230.225, R
83317, 231.4361111111111, R
83749, 232.63611111111112, R
84196, 233.87777777777777, R
84637, 235.1027777777778, R
85083, 236.34166666666667, R
85514, 237.5388888888889, R
85948, 238.74444444444444, R
86385, 239.95833333333334, R
86822, 241.17222222222222, R
87253, 242.36944444444444, R
87687, 243.575, R
88134, 244.81666666666666, R
88576, 246.04444444444445, R
89022, 247.28333333333333, R
89458, 248.49444444444444, R
89884, 249.67777777777778, R
90321, 250.89166666666668, R
90759, 252.10833333333332, R
91178, 253.2722222222222, R
91609, 254.46944444444443, R
92051, 255.69722222222222, R
92473, 256.86944444444447, R
92924, 258.1222222222222, R
93356, 259.3222222222222, R
93777, 260.4916666666667, R
94209, 261.69166666666666, R
94638, 262.8833333333333, R
95065, 264.06944444444446, R
95468, 265.18888888888887, R
95890, 266.3611111111111, R
96299, 267.4972222222222, R
96735, 268.7083333333333, R
97144, 269.84444444444443, R
97576, 271.0444444444444, R
98001, 272.225, R
98414, 273.3722222222222, R
98830, 274.52777777777777, R
99235, 275.65277777777777, R
99636, 276.76666666666665, R
100044, 277.9, R
100434, 278.98333333333335, R
100829, 280.0805555555556, R
101206, 281.1277777777778, R
101586, 282.18333333333334, R
101952, 283.2, R
102323, 284.23055555555555, R
102694, 285.2611111111111, R
103055, 286.2638888888889, R
103283, 286.89722222222224, +
103413, 287.2583333333333, J
103766, 288.2388888888889, J
104126, 289.2388888888889, J
104474, 290.2055555555556, J
104828, 291.18888888888887, J
105165, 292.125, J
105502, 293.06111111111113, J
105837, 293.9916666666667, J
106175, 294.93055555555554, J
106507, 295.85277777777776, J
106851, 296.80833333333334, J
107184, 297.73333333333335, J
107529, 298.69166666666666, J
107874, 299.65, J
108189, 300.525, V
108572, 301.5888888888889, J
108933, 302.59166666666664, J
109279, 303.5527777777778, J
109492, 304.14444444444445, V
109884, 305.23333333333335, J
110246, 306.2388888888889, J
110593, 307.2027777777778, J
110956, 308.2111111111111, J
111314, 309.2055555555556, J
111682, 310.22777777777776, J
111960, 311.0, +
112071, 311.30833333333334, F
112445, 312.34722222222223, V
112820, 313.3888888888889, V
113180, 314.3888888888889, V
113547, 315.40833333333336, V
113913, 316.425, V
114287, 317.4638888888889, V
114655, 318.4861111111111, V
115037, 319.5472222222222, V
115412, 320.5888888888889, V
115783, 321.61944444444447, V
116173, 322.7027777777778, V
116550, 323.75, V
116937, 324.825, V
117319, 325.8861111111111, V
117705, 326.9583333333333, V
118105, 328.06944444444446, V
118495, 329.15277777777777, V
118918, 330.3277777777778, V
119315, 331.43055555555554, F
119599, 332.21944444444443, +
119705, 332.5138888888889, J
120091, 333.5861111111111, J
120464, 334.6222222222222, J
120854, 335.7055555555556, J
121231, 336.7527777777778, J
121618, 337.8277777777778, J
121880, 338.55555555555554, +
122008, 338.9111111111111, R
122394, 339.98333333333335, R
122777, 341.0472222222222, R
123151, 342.0861111111111, R
123530, 343.1388888888889, R
123921, 344.225, R
124318, 345.3277777777778, R
124707, 346.40833333333336, R
125103, 347.5083333333333, R
125474, 348.5388888888889, R
125859, 349.60833333333335, R
126239, 350.6638888888889, R
126626, 351.7388888888889, R
127013, 352.81388888888887, R
127386, 353.85, R
127776, 354.93333333333334, R
128158, 355.99444444444447, R
128538, 357.05, R
128927, 358.13055555555553, R
129309, 359.19166666666666, R
129687, 360.2416666666667, R
130066, 361.2944444444444, R
130444, 362.34444444444443, R
130827, 363.40833333333336, R
131206, 364.4611111111111, R
131589, 365.525, R
131991, 366.64166666666665, R
132374, 367.7055555555556, R
132779, 368.8305555555556, R
133156, 369.8777777777778, R
133556, 370.9888888888889, R
133943, 372.06388888888887, R
134353, 373.2027777777778, R
134745, 374.2916666666667, R
135162, 375.45, R
135562, 376.56111111111113, R
135962, 377.6722222222222, R
136370, 378.80555555555554, R
136771, 379.9194444444444, R
137175, 381.0416666666667, R
137560, 382.1111111111111, R
137955, 383.2083333333333, R
138352, 384.31111111111113, R
138749, 385.4138888888889, R
139144, 386.5111111111111, R
139527, 387.575, R
139900, 388.6111111111111, R
140300, 389.72222222222223, R
140700, 390.8333333333333, R
141104, 391.9555555555556, R
141502, 393.06111111111113, R
141897, 394.15833333333336, R
142299, 395.275, R
142685, 396.34722222222223, R
143097, 397.4916666666667, R
143491, 398.5861111111111, R
143909, 399.7472222222222, R
144313, 400.86944444444447, R
144743, 402.06388888888887, R
145151, 403.1972222222222, R
145565, 404.34722222222223, R
145963, 405.4527777777778, R
146390, 406.6388888888889, R
146795, 407.7638888888889, R
147218, 408.93888888888887, R
147615, 410.0416666666667, R
148026, 411.18333333333334, R
148415, 412.2638888888889, R
148821, 413.39166666666665, R
149209, 414.46944444444443, R
149613, 415.59166666666664, R
150009, 416.69166666666666, R
150414, 417.81666666666666, R
150843, 419.0083333333333, R
151247, 420.13055555555553, R
151649, 421.2472222222222, R
152045, 422.34722222222223, R
152443, 423.4527777777778, R
152824, 424.5111111111111, R
153207, 425.575, R
153595, 426.65277777777777, R
153989, 427.7472222222222, R
154372, 428.81111111111113, R
154769, 429.9138888888889, R
155156, 430.9888888888889, R
155562, 432.1166666666667, R
155958, 433.21666666666664, R
156369, 434.35833333333335, R
156778, 435.49444444444447, R
157175, 436.59722222222223, R
157569, 437.69166666666666, R
157981, 438.8361111111111, R
158387, 439.9638888888889, R
158796, 441.1, R
159194, 442.2055555555556, R
159593, 443.31388888888887, R
160001, 444.4472222222222, R
160347, 445.40833333333336, A
160815, 446.7083333333333, R
161235, 447.875, R
161653, 449.0361111111111, R
162070, 450.19444444444446, R
162482, 451.3388888888889, R
162891, 452.475, R
163297, 453.60277777777776, R
163696, 454.7111111111111, R
164109, 455.85833333333335, R
164503, 456.9527777777778, R
164924, 458.1222222222222, R
165326, 459.2388888888889, R
165750, 460.4166666666667, R
166179, 461.60833333333335, R
166605, 462.7916666666667, R
167027, 463.9638888888889, R
167457, 465.15833333333336, R
167859, 466.275, R
168285, 467.4583333333333, R
168692, 468.5888888888889, R
169131, 469.80833333333334, R
169534, 470.9277777777778, R
169961, 472.1138888888889, R
170368, 473.24444444444447, R
170788, 474.4111111111111, R
171190, 475.52777777777777, R
171615, 476.7083333333333, R
172019, 477.8305555555556, R
172431, 478.975, R
172831, 480.0861111111111, R
173240, 481.22222222222223, R
173635, 482.31944444444446, R
174032, 483.4222222222222, R
174426, 484.51666666666665, R
174820, 485.6111111111111, R
175219, 486.71944444444443, R
175601, 487.78055555555557, R
175997, 488.88055555555553, R
176377, 489.93611111111113, R
176766, 491.01666666666665, R
177152, 492.0888888888889, R
177554, 493.2055555555556, R
177958, 494.3277777777778, R
178375, 495.4861111111111, R
178797, 496.65833333333336, R
179206, 497.7944444444444, R
179621, 498.9472222222222, R
180038, 500.10555555555555, R
180464, 501.2888888888889, R
180896, 502.4888888888889, R
181320, 503.6666666666667, R
181734, 504.81666666666666, R
182171, 506.03055555555557, R
182588, 507.18888888888887, R
183030, 508.4166666666667, R
183458, 509.60555555555555, R
183896, 510.8222222222222, R
184323, 512.0083333333333, R
184765, 513.2361111111111, R
185197, 514.4361111111111, R
185638, 515.6611111111112, R
186066, 516.85, R
186495, 518.0416666666666, R
186911, 519.1972222222222, R
187327, 520.3527777777778, R
187744, 521.5111111111111, R
188182, 522.7277777777778, R
188600, 523.8888888888889, R
189050, 525.1388888888889, R
189479, 526.3305555555555, R
189889, 527.4694444444444, R
190317, 528.6583333333333, R
190719, 529.775, R
191123, 530.8972222222222, R
191498, 531.9388888888889, R
191888, 533.0222222222222, R
192314, 534.2055555555555, R
192707, 535.2972222222222, R
193119, 536.4416666666667, R
193515, 537.5416666666666, R
193913, 538.6472222222222, R
194300, 539.7222222222222, R
194654, 540.7055555555555, R
195045, 541.7916666666666, R
195418, 542.8277777777778, R
195784, 543.8444444444444, R
196166, 544.9055555555556, R
196530, 545.9166666666666, R
196908, 546.9666666666667, R
197279, 547.9972222222223, R
197641, 549.0027777777777, R
197744, 549.2888888888889, ~
198024, 550.0666666666667, R
198403, 551.1194444444444, R
198766, 552.1277777777777, R
199151, 553.1972222222222, R
199531, 554.2527777777777, R
199880, 555.2222222222222, R
200243, 556.2305555555556, R
200595, 557.2083333333334, R
200963, 558.2305555555556, R
201352, 559.3111111111111, R
201748, 560.4111111111112, R
202140, 561.5, R
202433, 562.3138888888889, ~
202548, 562.6333333333333, R
202945, 563.7361111111111, R
203346, 564.85, R
203752, 565.9777777777778, R
204155, 567.0972222222222, R
204566, 568.2388888888889, R
204973, 569.3694444444444, R
205382, 570.5055555555556, R
205795, 571.6527777777778, R
206202, 572.7833333333333, R
206614, 573.9277777777778, R
207015, 575.0416666666666, R
207414, 576.15, R
207813, 577.2583333333333, R
208218, 578.3833333333333, R
208624, 579.5111111111111, R
209023, 580.6194444444444, R
209426, 581.7388888888889, R
209818, 582.8277777777778, R
210233, 583.9805555555556, R
210631, 585.0861111111111, R
211044, 586.2333333333333, R
211434, 587.3166666666667, R
211834, 588.4277777777778, R
212233, 589.5361111111112, R
212628, 590.6333333333333, R
213021, 591.725, R
213402, 592.7833333333333, R
213799, 593.8861111111111, R
214207, 595.0194444444444, R
214604, 596.1222222222223, R
215006, 597.2388888888889, R
215405, 598.3472222222222, R
215782, 599.3944444444444, R
216189, 600.525, R
216572, 601.5888888888888, R
216985, 602.7361111111111, R
217369, 603.8027777777778, R
217763, 604.8972222222222, R
218161, 606.0027777777777, R
218551, 607.0861111111111, R
218947, 608.1861111111111, R
219335, 609.2638888888889, R
219720, 610.3333333333334, R
219980, 611.0555555555555, V
220482, 612.45, j
220873, 613.5361111111112, R
221263, 614.6194444444444, R
221538, 615.3833333333333, V
222007, 616.6861111111111, j
222404, 617.7888888888889, R
222813, 618.925, R
223198, 619.9944444444444, R
223585, 621.0694444444445, R
223966, 622.1277777777777, R
224363, 623.2305555555556, R
224751, 624.3083333333333, R
225155, 625.4305555555555, R
225541, 626.5027777777777, R
225935, 627.5972222222222, R
226329, 628.6916666666667, R
226633, 629.5361111111112, +
226731, 629.8083333333333, F
227138, 630.9388888888889, F
227537, 632.0472222222222, V
227934, 633.15, V
228327, 634.2416666666667, V
228740, 635.3888888888889, V
229152, 636.5333333333333, V
229552, 637.6444444444444, F
229840, 638.4444444444445, +
229955, 638.7638888888889, R
230361, 639.8916666666667, R
230750, 640.9722222222222, R
231152, 642.0888888888888, R
231531, 643.1416666666667, R
231927, 644.2416666666667, R
232320, 645.3333333333334, R
232720, 646.4444444444445, R
233117, 647.5472222222222, R
233501, 648.6138888888889, R
233892, 649.7, R
234277, 650.7694444444444, R
234678, 651.8833333333333, R
235072, 652.9777777777778, R
235472, 654.0888888888888, R
235851, 655.1416666666667, R
236258, 656.2722222222222, R
236643, 657.3416666666667, R
237055, 658.4861111111111, R
237446, 659.5722222222222, R
237846, 660.6833333333333, R
238247, 661.7972222222222, R
238651, 662.9194444444445, R
239055, 664.0416666666666, R
239456, 665.1555555555556, R
239857, 666.2694444444444, R
240272, 667.4222222222222, R
240682, 668.5611111111111, R
241094, 669.7055555555555, R
241498, 670.8277777777778, R
241916, 671.9888888888889, R
242334, 673.15, R
242754, 674.3166666666667, R
243170, 675.4722222222222, R
243580, 676.6111111111111, R
244013, 677.8138888888889, R
244443, 679.0083333333333, R
244872, 680.2, R
245281, 681.3361111111111, R
245693, 682.4805555555556, R
246113, 683.6472222222222, R
246507, 684.7416666666667, R
246910, 685.8611111111111, R
247282, 686.8944444444444, R
247677, 687.9916666666667, R
248065, 689.0694444444445, R
248451, 690.1416666666667, R
248865, 691.2916666666666, R
249244, 692.3444444444444, R
249646, 693.4611111111111, R
250046, 694.5722222222222, R
250444, 695.6777777777778, R
250852, 696.8111111111111, R
251228, 697.8555555555556, R
251626, 698.9611111111111, R
252009, 700.025, R
252400, 701.1111111111111, R
252796, 702.2111111111111, R
253177, 703.2694444444444, R
253569, 704.3583333333333, R
253970, 705.4722222222222, R
254382, 706.6166666666667, R
254774, 707.7055555555555, R
255174, 708.8166666666667, R
255555, 709.875, R
255950, 710.9722222222222, R
256338, 712.05, R
256740, 713.1666666666666, R
257140, 714.2777777777778, R
257548, 715.4111111111112, R
257948, 716.5222222222222, R
258371, 717.6972222222222, R
258787, 718.8527777777778, R
259202, 720.0055555555556, R
259606, 721.1277777777777, R
260031, 722.3083333333333, R
260427, 723.4083333333333, R
260840, 724.5555555555555, R
261232, 725.6444444444444, R
261636, 726.7666666666667, R
262045, 727.9027777777778, R
262446, 729.0166666666667, R
262856, 730.1555555555556, R
263246, 731.2388888888889, R
263645, 732.3472222222222, R
264044, 733.4555555555555, R
264447, 734.575, R
264851, 735.6972222222222, R
265256, 736.8222222222222, R
265656, 737.9333333333333, R
266075, 739.0972222222222, R
266464, 740.1777777777778, R
266880, 741.3333333333334, R
267266, 742.4055555555556, R
267668, 743.5222222222222, R
268068, 744.6333333333333, R
268466, 745.7388888888889, R
268876, 746.8777777777777, R
269282, 748.0055555555556, R
269687, 749.1305555555556, R
270094, 750.2611111111111, R
270503, 751.3972222222222, R
270911, 752.5305555555556, R
271323, 753.675, R
271716, 754.7666666666667, R
272138, 755.9388888888889, R
272541, 757.0583333333333, R
272964, 758.2333333333333, R
273362, 759.3388888888888, R
273767, 760.4638888888888, R
274176, 761.6, R
274594, 762.7611111111111, R
275019, 763.9416666666667, R
275424, 765.0666666666667, R
275834, 766.2055555555555, R
276245, 767.3472222222222, R
276655, 768.4861111111111, R
277062, 769.6166666666667, R
277467, 770.7416666666667, R
277873, 771.8694444444444, R
278283, 773.0083333333333, R
278688, 774.1333333333333, R
279101, 775.2805555555556, R
279496, 776.3777777777777, R
279901, 777.5027777777777, R
280298, 778.6055555555556, R
280704, 779.7333333333333, R
281096, 780.8222222222222, R
281489, 781.9138888888889, R
281880, 783.0, R
282298, 784.1611111111112, R
282708, 785.3, R
283120, 786.4444444444445, R
283523, 787.5638888888889, R
283929, 788.6916666666667, R
284348, 789.8555555555556, R
284757, 790.9916666666667, R
285173, 792.1472222222222, R
285572, 793.2555555555556, R
285991, 794.4194444444445, R
286397, 795.5472222222222, R
286816, 796.7111111111111, R
287216, 797.8222222222222, R
287657, 799.0472222222222, R
288089, 800.2472222222223, R
288502, 801.3944444444444, R
288912, 802.5333333333333, R
289321, 803.6694444444445, R
289720, 804.7777777777778, R
290129, 805.9138888888889, R
290530, 807.0277777777778, R
290953, 808.2027777777778, R
291364, 809.3444444444444, R
291761, 810.4472222222222, R
292190, 811.6388888888889, R
292601, 812.7805555555556, R
293032, 813.9777777777778, R
293437, 815.1027777777778, R
293837, 816.2138888888888, R
294239, 817.3305555555555, R
294659, 818.4972222222223, R
295067, 819.6305555555556, R
295489, 820.8027777777778, R
295900, 821.9444444444445, R
296152, 822.6444444444444, V
296721, 824.225, R
297135, 825.375, R
297551, 826.5305555555556, R
297979, 827.7194444444444, R
298374, 828.8166666666667, R
298791, 829.975, R
299185, 831.0694444444445, R
299594, 832.2055555555555, R
300006, 833.35, R
300412, 834.4777777777778, R
300846, 835.6833333333333, R
301274, 836.8722222222223, R
301701, 838.0583333333333, R
302119, 839.2194444444444, R
302540, 840.3888888888889, R
302948, 841.5222222222222, R
303358, 842.6611111111112, R
303746, 843.7388888888889, R
304148, 844.8555555555556, R
304540, 845.9444444444445, R
304936, 847.0444444444445, R
305334, 848.15, R
305726, 849.2388888888889, R
306146, 850.4055555555556, R
306543, 851.5083333333333, R
306970, 852.6944444444445, R
307369, 853.8027777777778, R
307778, 854.9388888888889, R
308192, 856.0888888888888, R
308606, 857.2388888888889, R
309024, 858.4, R
309423, 859.5083333333333, R
309830, 860.6388888888889, R
310247, 861.7972222222222, R
310672, 862.9777777777778, R
311093, 864.1472222222222, R
311499, 865.275, R
311909, 866.4138888888889, R
312314, 867.5388888888889, R
312738, 868.7166666666667, R
313142, 869.8388888888888, R
313561, 871.0027777777777, R
313973, 872.1472222222222, R
314396, 873.3222222222222, R
314818, 874.4944444444444, R
315239, 875.6638888888889, R
315644, 876.7888888888889, R
316066, 877.9611111111111, R
316486, 879.1277777777777, R
316912, 880.3111111111111, R
317335, 881.4861111111111, R
317739, 882.6083333333333, R
318175, 883.8194444444445, R
318590, 884.9722222222222, R
319020, 886.1666666666666, R
319426, 887.2944444444445, R
319856, 888.4888888888889, R
320262, 889.6166666666667, R
320691, 890.8083333333333, R
321099, 891.9416666666667, R
321518, 893.1055555555556, R
321933, 894.2583333333333, R
322349, 895.4138888888889, R
322784, 896.6222222222223, R
323190, 897.75, R
323601, 898.8916666666667, R
324034, 900.0944444444444, R
324454, 901.2611111111111, R
324876, 902.4333333333333, R
325289, 903.5805555555555, R
325700, 904.7222222222222, R
326136, 905.9333333333333, R
326555, 907.0972222222222, R
326977, 908.2694444444444, R
327396, 909.4333333333333, R
327824, 910.6222222222223, R
328234, 911.7611111111111, R
328661, 912.9472222222222, R
329060, 914.0555555555555, R
329467, 915.1861111111111, R
329881, 916.3361111111111, R
330280, 917.4444444444445, R
330693, 918.5916666666667, R
331088, 919.6888888888889, R
331484, 920.7888888888889, R
331870, 921.8611111111111, R
332277, 922.9916666666667, R
332680, 924.1111111111111, R
333078, 925.2166666666667, R
333461, 926.2805555555556, R
333848, 927.3555555555556, R
334249, 928.4694444444444, R
334679, 929.6638888888889, R
335084, 930.7888888888889, R
335507, 931.9638888888888, R
335915, 933.0972222222222, R
336331, 934.2527777777777, R
336744, 935.4, R
337158, 936.55, R
337565, 937.6805555555555, R
337930, 938.6944444444445, R
338381, 939.9472222222222, R
338821, 941.1694444444445, R
339243, 942.3416666666667, R
339687, 943.575, R
340118, 944.7722222222222, R
340543, 945.9527777777778, R
340963, 947.1194444444444, R
341380, 948.2777777777778, R
341792, 949.4222222222222, R
342207, 950.575, R
342629, 951.7472222222223, R
343030, 952.8611111111111, R
343447, 954.0194444444444, R
343862, 955.1722222222222, R
344281, 956.3361111111111, R
344698, 957.4944444444444, R
345119, 958.6638888888889, R
345541, 959.8361111111111, R
345970, 961.0277777777778, R
346368, 962.1333333333333, R
346801, 963.3361111111111, R
347207, 964.4638888888888, R
347614, 965.5944444444444, R
348031, 966.7527777777777, R
348461, 967.9472222222222, R
348869, 969.0805555555555, R
349287, 970.2416666666667, R
349696, 971.3777777777777, R
350116, 972.5444444444445, R
350537, 973.7138888888888, R
350959, 974.8861111111111, R
351369, 976.025, R
351802, 977.2277777777778, R
352215, 978.375, R
352657, 979.6027777777778, R
353094, 980.8166666666667, R
353524, 982.0111111111111, R
353951, 983.1972222222222, R
354370, 984.3611111111111, R
354794, 985.5388888888889, R
355207, 986.6861111111111, R
355613, 987.8138888888889, R
356031, 988.975, R
356446, 990.1277777777777, R
356868, 991.3, R
357293, 992.4805555555556, R
357711, 993.6416666666667, R
358130, 994.8055555555555, R
358555, 995.9861111111111, R
358958, 997.1055555555556, R
359214, 997.8166666666667, V
359752, 999.3111111111111, R
360162, 1000.45, R
360603, 1001.675, R
361015, 1002.8194444444445, R
361436, 1003.9888888888889, R
361857, 1005.1583333333333, R
362269, 1006.3027777777778, R
362686, 1007.4611111111111, R
363104, 1008.6222222222223, R
363517, 1009.7694444444444, R
363929, 1010.9138888888889, R
364324, 1012.0111111111111, R
364735, 1013.1527777777778, R
365134, 1014.2611111111111, R
365543, 1015.3972222222222, R
365961, 1016.5583333333333, R
366382, 1017.7277777777778, R
366799, 1018.8861111111111, R
367226, 1020.0722222222222, R
367644, 1021.2333333333333, R
368073, 1022.425, R
368490, 1023.5833333333334, R
368912, 1024.7555555555555, R
369326, 1025.9055555555556, R
369758, 1027.1055555555556, R
370180, 1028.2777777777778, R
370617, 1029.4916666666666, R
371031, 1030.6416666666667, R
371454, 1031.8166666666666, R
371881, 1033.0027777777777, R
372283, 1034.1194444444445, R
372716, 1035.3222222222223, R
373132, 1036.4777777777779, R
373535, 1037.5972222222222, R
373968, 1038.8, R
374403, 1040.0083333333334, R
374822, 1041.1722222222222, R
375230, 1042.3055555555557, R
375654, 1043.4833333333333, R
375789, 1043.8583333333333, +
375925, 1044.236111111111, V
376479, 1045.775, R
376878, 1046.8833333333334, R
377163, 1047.675, V
377710, 1049.1944444444443, R
378109, 1050.3027777777777, R
378427, 1051.1861111111111, V
378957, 1052.6583333333333, R
379372, 1053.8111111111111, R
379617, 1054.4916666666666, V
379901, 1055.2805555555556, +
380185, 1056.0694444444443, R
380614, 1057.2611111111112, R
381020, 1058.388888888889, R
381427, 1059.5194444444444, R
381519, 1059.775, +
381798, 1060.55, V
382151, 1061.5305555555556, V
382513, 1062.536111111111, V
382859, 1063.4972222222223, V
383220, 1064.5, V
383576, 1065.4888888888888, V
384040, 1066.7777777777778, +
384135, 1067.0416666666667, R
384475, 1067.986111111111, V
384969, 1069.3583333333333, R
385364, 1070.4555555555555, R
385780, 1071.611111111111, R
386181, 1072.725, R
386630, 1073.9722222222222, R
387050, 1075.138888888889, R
387466, 1076.2944444444445, R
387878, 1077.4388888888889, R
388302, 1078.6166666666666, R
388721, 1079.7805555555556, R
389138, 1080.9388888888889, R
389539, 1082.0527777777777, R
389969, 1083.2472222222223, R
390384, 1084.4, R
390820, 1085.611111111111, R
391237, 1086.7694444444444, R
391707, 1088.075, R
392150, 1089.3055555555557, R
392592, 1090.5333333333333, R
393005, 1091.6805555555557, R
393426, 1092.85, R
393834, 1093.9833333333333, R
394253, 1095.1472222222221, R
394679, 1096.3305555555555, R
395105, 1097.513888888889, R
395520, 1098.6666666666667, R
395950, 1099.861111111111, R
396364, 1101.0111111111112, R
396782, 1102.1722222222222, R
397185, 1103.2916666666667, R
397599, 1104.4416666666666, R
398005, 1105.5694444444443, R
398430, 1106.75, R
398838, 1107.8833333333334, R
399245, 1109.013888888889, R
399669, 1110.1916666666666, R
400071, 1111.3083333333334, R
400497, 1112.4916666666666, R
400896, 1113.6, R
401329, 1114.8027777777777, R
401760, 1116.0, R
402174, 1117.15, R
402608, 1118.3555555555556, R
403030, 1119.5277777777778, R
403458, 1120.7166666666667, R
403891, 1121.9194444444445, R
404329, 1123.1361111111112, R
404761, 1124.3361111111112, R
405188, 1125.5222222222221, R
405612, 1126.7, R
406035, 1127.875, R
406478, 1129.1055555555556, R
406893, 1130.2583333333334, R
407312, 1131.4222222222222, R
407735, 1132.5972222222222, R
408157, 1133.7694444444444, R
408589, 1134.9694444444444, R
409015, 1136.1527777777778, R
409451, 1137.3638888888888, R
409890, 1138.5833333333333, R
410328, 1139.8, R
410753, 1140.9805555555556, R
411201, 1142.225, R
411647, 1143.463888888889, R
412071, 1144.6416666666667, R
412514, 1145.8722222222223, R
412942, 1147.0611111111111, R
413353, 1148.2027777777778, R
413781, 1149.3916666666667, R
414190, 1150.5277777777778, R
414631, 1151.7527777777777, R
415043, 1152.8972222222221, R
415467, 1154.075, R
415882, 1155.2277777777779, R
416313, 1156.425, R
416724, 1157.5666666666666, R
417151, 1158.7527777777777, R
417563, 1159.8972222222221, R
417978, 1161.05, R
418384, 1162.1777777777777, R
418795, 1163.3194444444443, R
419191, 1164.4194444444445, R
419605, 1165.5694444444443, R
420004, 1166.6777777777777, R
420418, 1167.8277777777778, R
420822, 1168.95, R
421220, 1170.0555555555557, R
421629, 1171.1916666666666, R
422036, 1172.3222222222223, R
422467, 1173.5194444444444, R
422889, 1174.6916666666666, R
423313, 1175.8694444444445, R
423736, 1177.0444444444445, R
424164, 1178.2333333333333, R
424592, 1179.4222222222222, R
425026, 1180.6277777777777, R
425444, 1181.7888888888888, R
425872, 1182.9777777777779, R
426306, 1184.1833333333334, R
426733, 1185.3694444444445, R
427148, 1186.5222222222221, R
427582, 1187.7277777777779, R
427991, 1188.8638888888888, R
428434, 1190.0944444444444, R
428845, 1191.236111111111, R
429261, 1192.3916666666667, R
429673, 1193.536111111111, R
430089, 1194.6916666666666, R
430496, 1195.8222222222223, R
430914, 1196.9833333333333, R
431308, 1198.0777777777778, R
431724, 1199.2333333333333, R
432130, 1200.361111111111, R
432547, 1201.5194444444444, R
432933, 1202.5916666666667, R
433331, 1203.6972222222223, R
433739, 1204.8305555555555, R
434163, 1206.0083333333334, R
434571, 1207.1416666666667, R
434990, 1208.3055555555557, R
435402, 1209.45, R
435825, 1210.625, R
436248, 1211.8, R
436669, 1212.9694444444444, R
437080, 1214.111111111111, R
437513, 1215.3138888888889, R
437915, 1216.4305555555557, R
438343, 1217.6194444444445, R
438748, 1218.7444444444445, R
439004, 1219.4555555555555, A
439478, 1220.7722222222221, R
439912, 1221.9777777777779, R
440353, 1223.2027777777778, R
440772, 1224.3666666666666, R
441192, 1225.5333333333333, R
441611, 1226.6972222222223, R
442036, 1227.8777777777777, R
442451, 1229.0305555555556, R
442864, 1230.1777777777777, R
443269, 1231.3027777777777, R
443695, 1232.486111111111, R
444111, 1233.6416666666667, R
444547, 1234.8527777777779, R
444953, 1235.9805555555556, R
445377, 1237.1583333333333, R
445791, 1238.3083333333334, R
446221, 1239.5027777777777, R
446619, 1240.6083333333333, R
447041, 1241.7805555555556, R
447461, 1242.9472222222223, R
447884, 1244.1222222222223, R
448309, 1245.3027777777777, R
448726, 1246.4611111111112, R
449126, 1247.5722222222223, R
449557, 1248.7694444444444, R
449957, 1249.8805555555555, R
450383, 1251.0638888888889, R
450786, 1252.1833333333334, R
451190, 1253.3055555555557, R
451600, 1254.4444444444443, R
452004, 1255.5666666666666, R
452420, 1256.7222222222222, R
452818, 1257.8277777777778, R
453231, 1258.975, R
453644, 1260.1222222222223, R
454064, 1261.2888888888888, R
454475, 1262.4305555555557, R
454886, 1263.5722222222223, R
455293, 1264.7027777777778, R
455714, 1265.8722222222223, R
456130, 1267.0277777777778, R
456550, 1268.1944444444443, R
456966, 1269.35, R
457398, 1270.55, R
457810, 1271.6944444444443, R
458244, 1272.9, R
458654, 1274.0388888888888, R
459071, 1275.1972222222223, R
459482, 1276.338888888889, R
459906, 1277.5166666666667, R
460337, 1278.713888888889, R
460771, 1279.9194444444445, R
461194, 1281.0944444444444, R
461625, 1282.2916666666667, R
462049, 1283.4694444444444, R
462477, 1284.6583333333333, R
462892, 1285.8111111111111, R
463320, 1287.0, R
463720, 1288.111111111111, R
464151, 1289.3083333333334, R
464567, 1290.463888888889, R
464991, 1291.6416666666667, R
465418, 1292.8277777777778, R
465852, 1294.0333333333333, R
466280, 1295.2222222222222, R
466700, 1296.388888888889, R
467109, 1297.525, R
467535, 1298.7083333333333, R
467967, 1299.9083333333333, R
468377, 1301.0472222222222, R
468794, 1302.2055555555555, R
469214, 1303.3722222222223, R
469628, 1304.5222222222221, R
470037, 1305.6583333333333, R
470451, 1306.8083333333334, R
470860, 1307.9444444444443, R
471275, 1309.0972222222222, R
471684, 1310.2333333333333, R
472099, 1311.3861111111112, R
472505, 1312.513888888889, R
472909, 1313.6361111111112, R
473311, 1314.7527777777777, R
473706, 1315.85, R
474100, 1316.9444444444443, R
474466, 1317.9611111111112, R
474826, 1318.9611111111112, R
475174, 1319.9277777777777, R
475537, 1320.9361111111111, R
475910, 1321.9722222222222, R
476272, 1322.9777777777779, R
476636, 1323.9888888888888, R
477007, 1325.0194444444444, R
477381, 1326.0583333333334, R
477762, 1327.1166666666666, R
478145, 1328.1805555555557, R
478521, 1329.225, R
478921, 1330.3361111111112, R
479308, 1331.411111111111, R
479692, 1332.4777777777779, R
480080, 1333.5555555555557, R
480472, 1334.6444444444444, R
480861, 1335.725, R
481263, 1336.8416666666667, R
481662, 1337.95, R
482078, 1339.1055555555556, R
482500, 1340.2777777777778, R
482904, 1341.4, R
483337, 1342.6027777777779, R
483741, 1343.725, R
484157, 1344.8805555555555, R
484546, 1345.9611111111112, R
484941, 1347.0583333333334, R
485327, 1348.1305555555555, R
485717, 1349.213888888889, R
486107, 1350.2972222222222, R
486502, 1351.3944444444444, R
486881, 1352.4472222222223, R
487280, 1353.5555555555557, R
487661, 1354.6138888888888, R
488054, 1355.7055555555555, R
488455, 1356.8194444444443, R
488834, 1357.8722222222223, R
489244, 1359.0111111111112, R
489628, 1360.0777777777778, R
490044, 1361.2333333333333, R
490428, 1362.3, R
490829, 1363.4138888888888, R
491229, 1364.525, R
491617, 1365.6027777777779, R
492015, 1366.7083333333333, R
492407, 1367.7972222222222, R
492794, 1368.8722222222223, R
493181, 1369.9472222222223, R
493566, 1371.0166666666667, R
493961, 1372.1138888888888, R
494362, 1373.2277777777779, R
494755, 1374.3194444444443, R
495165, 1375.4583333333333, R
495559, 1376.5527777777777, R
495957, 1377.6583333333333, R
496369, 1378.8027777777777, R
496765, 1379.9027777777778, R
497182, 1381.0611111111111, R
497564, 1382.1222222222223, R
497968, 1383.2444444444445, R
498348, 1384.3, R
498741, 1385.3916666666667, R
499135, 1386.486111111111, R
499524, 1387.5666666666666, R
499919, 1388.6638888888888, R
500305, 1389.736111111111, R
500695, 1390.8194444444443, R
501080, 1391.888888888889, R
501464, 1392.9555555555555, R
501847, 1394.0194444444444, R
502228, 1395.0777777777778, R
502601, 1396.1138888888888, R
502975, 1397.1527777777778, R
503350, 1398.1944444444443, R
503726, 1399.2388888888888, R
504110, 1400.3055555555557, R
504489, 1401.3583333333333, R
504870, 1402.4166666666667, R
505268, 1403.5222222222221, R
505409, 1403.9138888888888, +
505550, 1404.3055555555557, V
506046, 1405.6833333333334, R
506419, 1406.7194444444444, R
506651, 1407.3638888888888, V
507167, 1408.7972222222222, R
507542, 1409.838888888889, R
507839, 1410.6638888888888, V
508330, 1412.0277777777778, R
508699, 1413.0527777777777, R
509044, 1414.0111111111112, V
509256, 1414.6, +
509468, 1415.1888888888889, R
509860, 1416.2777777777778, R
510230, 1417.3055555555557, R
510611, 1418.3638888888888, R
510986, 1419.4055555555556, R
511371, 1420.475, R
511753, 1421.536111111111, R
512138, 1422.6055555555556, R
512520, 1423.6666666666667, R
512914, 1424.7611111111112, R
513297, 1425.825, R
513694, 1426.9277777777777, R
514075, 1427.986111111111, R
514451, 1429.0305555555556, R
514819, 1430.0527777777777, R
515206, 1431.1277777777777, R
515583, 1432.175, R
515976, 1433.2666666666667, R
516345, 1434.2916666666667, R
516726, 1435.35, R
517110, 1436.4166666666667, R
517493, 1437.4805555555556, R
517876, 1438.5444444444445, R
518256, 1439.6, R
518622, 1440.6166666666666, R
519006, 1441.6833333333334, R
519365, 1442.6805555555557, R
519751, 1443.7527777777777, R
520115, 1444.763888888889, R
520499, 1445.8305555555555, R
520881, 1446.8916666666667, R
521267, 1447.963888888889, R
521659, 1449.0527777777777, R
522040, 1450.111111111111, R
522423, 1451.175, R
522797, 1452.213888888889, R
523179, 1453.275, R
523564, 1454.3444444444444, R
523948, 1455.411111111111, R
524326, 1456.4611111111112, R
524708, 1457.5222222222221, R
525096, 1458.6, R
525489, 1459.6916666666666, R
525879, 1460.775, R
526262, 1461.838888888889, R
526637, 1462.8805555555555, R
527023, 1463.9527777777778, R
527390, 1464.9722222222222, R
527771, 1466.0305555555556, R
528138, 1467.05, R
528515, 1468.0972222222222, R
528906, 1469.1833333333334, R
529289, 1470.2472222222223, R
529680, 1471.3333333333333, R
530061, 1472.3916666666667, R
530444, 1473.4555555555555, R
530833, 1474.536111111111, R
531217, 1475.6027777777779, R
531605, 1476.6805555555557, R
531981, 1477.725, R
532353, 1478.7583333333334, R
532727, 1479.7972222222222, R
533116, 1480.8777777777777, R
533502, 1481.95, R
533897, 1483.0472222222222, R
534279, 1484.1083333333333, R
534652, 1485.1444444444444, R
535037, 1486.213888888889, R
535421, 1487.2805555555556, R
535810, 1488.361111111111, R
536190, 1489.4166666666667, R
536550, 1490.4166666666667, R
536931, 1491.475, R
537289, 1492.4694444444444, R
537676, 1493.5444444444445, R
538040, 1494.5555555555557, R
538416, 1495.6, R
538783, 1496.6194444444445, R
539155, 1497.6527777777778, R
539533, 1498.7027777777778, R
539903, 1499.7305555555556, R
540254, 1500.7055555555555, R
540606, 1501.6833333333334, R
540980, 1502.7222222222222, R
541351, 1503.7527777777777, R
541716, 1504.7666666666667, R
542068, 1505.7444444444445, R
542425, 1506.736111111111, R
542796, 1507.7666666666667, R
543148, 1508.7444444444445, R
543459, 1509.6083333333333, R
543824, 1510.6222222222223, R
544175, 1511.5972222222222, R
544531, 1512.5861111111112, R
544904, 1513.6222222222223, R
545266, 1514.6277777777777, R
545625, 1515.625, R
545968, 1516.5777777777778, R
546319, 1517.5527777777777, R
546679, 1518.5527777777777, R
547036, 1519.5444444444445, R
547400, 1520.5555555555557, R
547779, 1521.6083333333333, R
548160, 1522.6666666666667, R
548544, 1523.7333333333333, R
548948, 1524.8555555555556, R
549350, 1525.9722222222222, R
549751, 1527.0861111111112, R
550139, 1528.1638888888888, R
550538, 1529.2722222222221, R
550942, 1530.3944444444444, R
551362, 1531.5611111111111, R
551769, 1532.6916666666666, R
552174, 1533.8166666666666, R
552575, 1534.9305555555557, R
552987, 1536.075, R
553390, 1537.1944444444443, R
553788, 1538.3, R
554173, 1539.3694444444445, R
554568, 1540.4666666666667, R
554960, 1541.5555555555557, R
555360, 1542.6666666666667, R
555766, 1543.7944444444445, R
556148, 1544.8555555555556, R
556542, 1545.95, R
556927, 1547.0194444444444, R
557324, 1548.1222222222223, R
557715, 1549.2083333333333, R
558092, 1550.2555555555555, R
558480, 1551.3333333333333, R
558853, 1552.3694444444445, R
559232, 1553.4222222222222, R
559618, 1554.4944444444445, R
560001, 1555.5583333333334, R
560380, 1556.611111111111, R
560768, 1557.6888888888889, R
561138, 1558.7166666666667, R
561524, 1559.7888888888888, R
561916, 1560.8777777777777, R
562300, 1561.9444444444443, R
562695, 1563.0416666666667, R
563071, 1564.0861111111112, R
563466, 1565.1833333333334, R
563847, 1566.2416666666666, R
564232, 1567.3111111111111, R
564628, 1568.411111111111, R
565009, 1569.4694444444444, R
565285, 1570.236111111111, V
565791, 1571.6416666666667, R
566187, 1572.7416666666666, R
566593, 1573.8694444444445, R
566975, 1574.9305555555557, R
567372, 1576.0333333333333, R
567746, 1577.0722222222223, R
568135, 1578.1527777777778, R
568518, 1579.2166666666667, R
568904, 1580.2888888888888, R
569293, 1581.3694444444445, R
569677, 1582.4361111111111, R
570058, 1583.4944444444445, R
570427, 1584.5194444444444, R
570791, 1585.5305555555556, R
571144, 1586.5111111111112, R
571509, 1587.525, R
571862, 1588.5055555555555, R
572226, 1589.5166666666667, R
572623, 1590.6194444444445, R
573021, 1591.725, R
573431, 1592.8638888888888, R
573818, 1593.9388888888889, R
574196, 1594.9888888888888, R
574593, 1596.0916666666667, R
574964, 1597.1222222222223, R
575356, 1598.2111111111112, R
575715, 1599.2083333333333, R
576089, 1600.2472222222223, R
576464, 1601.2888888888888, R
576820, 1602.2777777777778, R
577191, 1603.3083333333334, R
577545, 1604.2916666666667, R
577911, 1605.3083333333334, R
578294, 1606.3722222222223, R
578676, 1607.4333333333334, R
579061, 1608.5027777777777, R
579429, 1609.525, R
579787, 1610.5194444444444, R
580165, 1611.5694444444443, R
580539, 1612.6083333333333, R
580904, 1613.6222222222223, R
581293, 1614.7027777777778, R
581662, 1615.7277777777779, R
582048, 1616.8, R
582425, 1617.8472222222222, R
582812, 1618.9222222222222, R
583201, 1620.0027777777777, R
583583, 1621.0638888888889, R
583950, 1622.0833333333333, R
584321, 1623.1138888888888, R
584679, 1624.1083333333333, R
585046, 1625.1277777777777, R
585418, 1626.161111111111, R
585774, 1627.15, R
586127, 1628.1305555555555, R
586504, 1629.1777777777777, R
586867, 1630.1861111111111, R
587244, 1631.2333333333333, R
587607, 1632.2416666666666, R
587962, 1633.2277777777779, R
588324, 1634.2333333333333, R
588682, 1635.2277777777779, R
589055, 1636.263888888889, R
589421, 1637.2805555555556, R
589805, 1638.3472222222222, R
590182, 1639.3944444444444, R
590572, 1640.4777777777779, R
590952, 1641.5333333333333, R
591333, 1642.5916666666667, R
591731, 1643.6972222222223, R
592109, 1644.7472222222223, R
592505, 1645.8472222222222, R
592878, 1646.8833333333334, R
593274, 1647.9833333333333, R
593645, 1649.013888888889, R
594015, 1650.0416666666667, R
594391, 1651.0861111111112, R
594757, 1652.1027777777779, R
595129, 1653.1361111111112, R
595477, 1654.1027777777779, R
595850, 1655.138888888889, R
596211, 1656.1416666666667, R
596567, 1657.1305555555555, R
596925, 1658.125, R
597267, 1659.075, R
597616, 1660.0444444444445, R
597945, 1660.9583333333333, R
598303, 1661.9527777777778, R
598648, 1662.911111111111, R
599005, 1663.9027777777778, R
599224, 1664.5111111111112, V
599649, 1665.6916666666666, j
600021, 1666.725, j
600393, 1667.7583333333334, R
600739, 1668.7194444444444, R
601090, 1669.6944444444443, R
601409, 1670.5805555555555, R
601751, 1671.5305555555556, R
602100, 1672.5, R
602431, 1673.4194444444445, R
602783, 1674.3972222222221, R
603122, 1675.338888888889, R
603466, 1676.2944444444445, R
603817, 1677.2694444444444, R
604179, 1678.275, R
604528, 1679.2444444444445, R
604880, 1680.2222222222222, R
605233, 1681.2027777777778, R
605586, 1682.1833333333334, R
605944, 1683.1777777777777, R
606306, 1684.1833333333334, R
606659, 1685.1638888888888, R
607027, 1686.1861111111111, R
607388, 1687.1888888888889, R
607737, 1688.1583333333333, R
608101, 1689.1694444444445, R
608451, 1690.1416666666667, R
608805, 1691.125, R
609160, 1692.111111111111, R
609491, 1693.0305555555556, R
609834, 1693.9833333333333, R
610197, 1694.9916666666666, R
610543, 1695.9527777777778, R
610893, 1696.925, R
611235, 1697.875, R
611587, 1698.8527777777779, R
611923, 1699.786111111111, R
612273, 1700.7583333333334, R
612608, 1701.6888888888889, R
612952, 1702.6444444444444, R
613291, 1703.5861111111112, R
613648, 1704.5777777777778, R
613988, 1705.5222222222221, R
614338, 1706.4944444444445, R
614682, 1707.45, R
615032, 1708.4222222222222, R
615381, 1709.3916666666667, R
615722, 1710.338888888889, R
616076, 1711.3222222222223, R
616413, 1712.2583333333334, R
616623, 1712.8416666666667, V
617077, 1714.1027777777779, j
617439, 1715.1083333333333, R
617791, 1716.0861111111112, R
618134, 1717.0388888888888, R
618479, 1717.9972222222223, R
618834, 1718.9833333333333, R
619179, 1719.9416666666666, R
619514, 1720.8722222222223, R
619846, 1721.7944444444445, R
620196, 1722.7666666666667, R
620540, 1723.7222222222222, R
620897, 1724.713888888889, R
621267, 1725.7416666666666, R
621626, 1726.7388888888888, R
621992, 1727.7555555555555, R
622364, 1728.7888888888888, R
622726, 1729.7944444444445, R
623097, 1730.825, R
623454, 1731.8166666666666, R
623826, 1732.85, R
624181, 1733.8361111111112, R
624533, 1734.8138888888889, R
624924, 1735.9, R
625289, 1736.9138888888888, R
625640, 1737.888888888889, R
626019, 1738.9416666666666, R
626382, 1739.95, R
626752, 1740.9777777777779, R
627105, 1741.9583333333333, R
627471, 1742.975, R
627855, 1744.0416666666667, R
628236, 1745.1, R
628637, 1746.213888888889, R
629050, 1747.361111111111, R
629464, 1748.5111111111112, R
629895, 1749.7083333333333, R
630292, 1750.8111111111111, R
630711, 1751.975, R
631107, 1753.075, R
631505, 1754.1805555555557, R
631903, 1755.286111111111, R
632292, 1756.3666666666666, R
632702, 1757.5055555555555, R
633078, 1758.55, R
633467, 1759.6305555555555, R
633872, 1760.7555555555555, R
634241, 1761.7805555555556, R
634633, 1762.8694444444445, R
635023, 1763.9527777777778, R
635404, 1765.0111111111112, R
635792, 1766.088888888889, R
636155, 1767.0972222222222, R
636530, 1768.138888888889, R
636898, 1769.161111111111, R
637264, 1770.1777777777777, R
637634, 1771.2055555555555, R
638006, 1772.2388888888888, R
638362, 1773.2277777777779, R
638757, 1774.325, R
639125, 1775.3472222222222, R
639481, 1776.3361111111112, R
639846, 1777.35, R
640224, 1778.4, R
640601, 1779.4472222222223, R
640958, 1780.4388888888889, R
641322, 1781.45, R
641684, 1782.4555555555555, R
642048, 1783.4666666666667, R
642434, 1784.5388888888888, R
642800, 1785.5555555555557, R
643156, 1786.5444444444445, R
643528, 1787.5777777777778, R
643908, 1788.6333333333334, R
644270, 1789.638888888889, R
644647, 1790.6861111111111, R
645029, 1791.7472222222223, R
645398, 1792.7722222222221, R
645767, 1793.7972222222222, R
646143, 1794.8416666666667, R
646540, 1795.9444444444443, R
646911, 1796.975, R
647293, 1798.036111111111, R
647677, 1799.1027777777779, R
648044, 1800.1222222222223, R
648415, 1801.1527777777778, R
648786, 1802.1833333333334, R
649146, 1803.1833333333334, R
649510, 1804.1944444444443, R
649876, 1805.2111111111112, R
