67, 0.18611111111111112, +
225, 0.625, V
487, 1.3527777777777779, N
689, 1.913888888888889, V
964, 2.6777777777777776, N
1147, 3.186111111111111, V
1433, 3.9805555555555556, N
1610, 4.472222222222222, V
1882, 5.227777777777778, N
2072, 5.7555555555555555, V
2331, 6.475, N
2506, 6.961111111111111, V
2784, 7.733333333333333, N
2989, 8.302777777777777, V
3300, 9.166666666666666, N
3484, 9.677777777777777, V
3611, 10.030555555555555, +
3738, 10.383333333333333, N
3975, 11.041666666666666, N
4201, 11.669444444444444, N
4416, 12.266666666666667, N
4646, 12.905555555555555, N
4880, 13.555555555555555, N
5134, 14.261111111111111, N
5381, 14.947222222222223, N
5605, 15.569444444444445, N
5821, 16.169444444444444, N
6087, 16.908333333333335, N
6285, 17.458333333333332, V
6547, 18.18611111111111, N
6718, 18.66111111111111, V
7076, 19.655555555555555, N
7260, 20.166666666666668, V
7455, 20.708333333333332, V
7899, 21.941666666666666, N
8074, 22.427777777777777, V
8394, 23.316666666666666, N
8577, 23.825, V
8726, 24.238888888888887, V
9170, 25.47222222222222, N
9384, 26.066666666666666, V
9710, 26.97222222222222, N
9963, 27.675, N
10197, 28.325, N
10436, 28.988888888888887, N
10673, 29.647222222222222, N
10901, 30.280555555555555, N
11132, 30.92222222222222, N
11361, 31.558333333333334, N
11617, 32.269444444444446, N
11857, 32.93611111111111, N
12159, 33.775, N
12364, 34.34444444444444, V
12721, 35.33611111111111, N
12900, 35.833333333333336, V
13052, 36.25555555555555, V
13522, 37.56111111111111, N
13733, 38.147222222222226, V
14101, 39.169444444444444, N
14360, 39.888888888888886, N
14449, 40.13611111111111, +
14538, 40.38333333333333, V
14903, 41.397222222222226, N
15085, 41.90277777777778, V
15410, 42.80555555555556, N
15595, 43.31944444444444, V
15761, 43.78055555555556, +
15928, 44.24444444444445, N
16195, 44.986111111111114, N
16290, 45.25, +
16385, 45.513888888888886, V
16695, 46.375, N
16880, 46.888888888888886, V
17164, 47.67777777777778, N
17338, 48.16111111111111, V
17666, 49.07222222222222, N
17860, 49.611111111111114, V
18199, 50.55277777777778, N
18383, 51.06388888888889, V
18540, 51.5, +
18697, 51.93611111111111, N
18939, 52.608333333333334, N
19033, 52.86944444444445, +
19128, 53.13333333333333, V
19432, 53.977777777777774, N
19606, 54.46111111111111, V
19915, 55.31944444444444, N
20099, 55.830555555555556, V
20430, 56.75, N
20641, 57.33611111111111, V
20953, 58.202777777777776, N
21120, 58.666666666666664, V
21390, 59.416666666666664, N
21574, 59.92777777777778, V
21873, 60.75833333333333, N
22057, 61.269444444444446, V
22222, 61.727777777777774, +
22388, 62.18888888888889, N
22646, 62.90555555555556, N
22880, 63.55555555555556, N
23122, 64.22777777777777, N
23347, 64.85277777777777, N
23602, 65.56111111111112, N
23857, 66.26944444444445, N
24098, 66.93888888888888, N
24341, 67.6138888888889, N
24595, 68.31944444444444, N
24824, 68.95555555555555, N
25102, 69.72777777777777, N
25313, 70.31388888888888, V
25627, 71.18611111111112, N
25795, 71.65277777777777, V
25993, 72.20277777777778, V
26387, 73.29722222222222, N
26491, 73.58611111111111, +
26595, 73.875, V
26918, 74.77222222222223, N
27109, 75.30277777777778, V
27474, 76.31666666666666, N
27652, 76.81111111111112, V
28018, 77.82777777777778, N
28203, 78.34166666666667, V
28559, 79.33055555555555, N
28747, 79.85277777777777, V
29108, 80.85555555555555, N
29311, 81.41944444444445, V
29486, 81.90555555555555, +
29662, 82.39444444444445, N
29896, 83.04444444444445, N
30123, 83.675, N
30204, 83.9, +
30286, 84.12777777777778, V
30597, 84.99166666666666, N
30788, 85.52222222222223, V
31128, 86.46666666666667, N
31323, 87.00833333333334, V
31615, 87.81944444444444, N
31793, 88.31388888888888, V
32095, 89.15277777777777, N
32286, 89.68333333333334, V
32599, 90.55277777777778, N
32770, 91.02777777777777, V
32934, 91.48333333333333, +
33099, 91.94166666666666, N
33367, 92.68611111111112, N
33637, 93.43611111111112, N
33908, 94.18888888888888, N
34159, 94.8861111111111, N
34408, 95.57777777777778, N
34660, 96.27777777777777, N
34945, 97.06944444444444, N
35234, 97.87222222222222, N
35531, 98.69722222222222, N
35884, 99.67777777777778, N
35985, 99.95833333333333, +
36087, 100.24166666666666, V
36445, 101.23611111111111, N
36629, 101.74722222222222, V
36994, 102.7611111111111, N
37184, 103.28888888888889, V
37556, 104.32222222222222, N
37789, 104.96944444444445, V
38127, 105.90833333333333, N
38319, 106.44166666666666, V
38635, 107.31944444444444, N
38810, 107.80555555555556, V
39129, 108.69166666666666, N
39210, 108.91666666666667, +
39319, 109.21944444444445, V
39484, 109.67777777777778, V
39791, 110.53055555555555, V
40109, 111.41388888888889, +
40200, 111.66666666666667, N
40377, 112.15833333333333, V
40688, 113.02222222222223, N
40889, 113.58055555555555, V
41164, 114.34444444444445, N
41355, 114.875, V
41732, 115.92222222222222, N
41928, 116.46666666666667, V
42102, 116.95, +
42277, 117.43611111111112, N
42542, 118.17222222222222, N
42636, 118.43333333333334, +
42730, 118.69444444444444, V
43032, 119.53333333333333, N
43212, 120.03333333333333, V
43516, 120.87777777777778, N
43722, 121.45, V
44063, 122.39722222222223, N
44261, 122.94722222222222, V
44569, 123.80277777777778, N
44756, 124.32222222222222, V
45060, 125.16666666666667, N
45245, 125.68055555555556, V
45569, 126.58055555555555, N
45759, 127.10833333333333, V
46085, 128.01388888888889, N
46270, 128.52777777777777, V
46439, 128.99722222222223, +
46608, 129.46666666666667, N
46835, 130.09722222222223, N
46931, 130.36388888888888, +
47027, 130.63055555555556, V
47352, 131.53333333333333, N
47544, 132.06666666666666, V
47857, 132.9361111111111, N
48043, 133.45277777777778, V
48208, 133.9111111111111, +
48374, 134.37222222222223, N
48710, 135.30555555555554, N
49016, 136.15555555555557, N
49273, 136.86944444444444, N
49553, 137.6472222222222, N
49834, 138.42777777777778, N
50112, 139.2, N
50385, 139.95833333333334, N
50660, 140.72222222222223, N
50927, 141.4638888888889, N
51197, 142.2138888888889, N
51461, 142.94722222222222, N
51707, 143.63055555555556, N
51954, 144.31666666666666, N
52200, 145.0, N
52486, 145.79444444444445, N
52784, 146.62222222222223, N
53063, 147.3972222222222, N
53300, 148.05555555555554, N
53541, 148.725, N
53789, 149.4138888888889, N
54037, 150.1027777777778, N
54289, 150.80277777777778, N
54555, 151.54166666666666, N
54823, 152.2861111111111, N
55070, 152.97222222222223, N
55329, 153.69166666666666, N
55604, 154.45555555555555, N
55845, 155.125, N
56080, 155.77777777777777, N
56321, 156.44722222222222, N
56571, 157.14166666666668, N
56820, 157.83333333333334, N
57096, 158.6, N
57375, 159.375, N
57618, 160.05, N
57857, 160.7138888888889, N
58096, 161.37777777777777, N
58352, 162.0888888888889, N
58608, 162.8, N
58878, 163.55, N
59140, 164.27777777777777, N
59399, 164.99722222222223, N
59649, 165.69166666666666, N
59905, 166.40277777777777, N
60162, 167.11666666666667, N
60402, 167.78333333333333, N
60646, 168.4611111111111, N
60883, 169.11944444444444, N
61148, 169.85555555555555, N
61436, 170.65555555555557, N
61706, 171.40555555555557, N
61947, 172.075, N
62182, 172.7277777777778, N
62424, 173.4, N
62671, 174.0861111111111, N
62920, 174.77777777777777, N
63181, 175.50277777777777, N
63444, 176.23333333333332, N
63633, 176.75833333333333, V
63859, 177.38611111111112, V
64209, 178.35833333333332, N
64395, 178.875, V
64628, 179.5222222222222, V
64936, 180.37777777777777, N
65025, 180.625, +
65114, 180.87222222222223, V
65441, 181.78055555555557, N
65638, 182.32777777777778, V
65988, 183.3, N
66173, 183.8138888888889, V
66478, 184.6611111111111, N
66647, 185.13055555555556, V
66953, 185.98055555555555, N
67155, 186.54166666666666, V
67471, 187.41944444444445, N
67668, 187.96666666666667, V
67997, 188.88055555555556, N
68191, 189.41944444444445, V
68514, 190.31666666666666, N
68701, 190.8361111111111, V
69036, 191.76666666666668, N
69212, 192.25555555555556, V
69532, 193.14444444444445, N
69754, 193.76111111111112, V
70100, 194.72222222222223, N
70307, 195.29722222222222, V
70618, 196.1611111111111, N
70798, 196.6611111111111, V
71086, 197.4611111111111, N
71261, 197.94722222222222, V
71576, 198.82222222222222, N
71819, 199.49722222222223, V
72110, 200.30555555555554, N
72320, 200.88888888888889, V
72612, 201.7, N
72805, 202.23611111111111, V
73125, 203.125, N
73309, 203.63611111111112, V
73599, 204.44166666666666, N
73788, 204.96666666666667, V
74094, 205.81666666666666, N
74282, 206.3388888888889, V
74439, 206.775, +
74596, 207.2111111111111, N
74853, 207.925, N
75084, 208.56666666666666, N
75318, 209.21666666666667, N
75517, 209.76944444444445, A
75785, 210.51388888888889, N
76059, 211.275, N
76333, 212.0361111111111, N
76583, 212.73055555555555, N
76841, 213.44722222222222, N
77100, 214.16666666666666, N
77346, 214.85, N
77455, 215.15277777777777, +
77564, 215.45555555555555, V
77856, 216.26666666666668, N
78043, 216.7861111111111, V
78374, 217.70555555555555, N
78565, 218.23611111111111, V
78948, 219.3, N
79133, 219.8138888888889, V
79269, 220.19166666666666, ~
79451, 220.69722222222222, N
79657, 221.26944444444445, V
79796, 221.65555555555557, +
79935, 222.04166666666666, N
80174, 222.70555555555555, N
80438, 223.4388888888889, N
80562, 223.78333333333333, +
80686, 224.12777777777777, V
80972, 224.92222222222222, N
81170, 225.47222222222223, V
81459, 226.275, N
81653, 226.8138888888889, V
81962, 227.67222222222222, N
82144, 228.17777777777778, V
82428, 228.96666666666667, N
82613, 229.48055555555555, V
82764, 229.9, V
83073, 230.75833333333333, ~
83181, 231.05833333333334, N
83371, 231.5861111111111, V
83519, 231.99722222222223, +
83667, 232.40833333333333, N
83909, 233.08055555555555, N
84125, 233.68055555555554, N
84351, 234.30833333333334, N
84595, 234.98611111111111, N
84845, 235.68055555555554, N
85098, 236.38333333333333, N
85321, 237.00277777777777, N
85547, 237.63055555555556, N
85611, 237.80833333333334, ~
85791, 238.30833333333334, N
85981, 238.8361111111111, A
86230, 239.52777777777777, N
86473, 240.20277777777778, N
86694, 240.81666666666666, N
86927, 241.4638888888889, N
87160, 242.11111111111111, N
87340, 242.61111111111111, V
87666, 243.51666666666668, N
87848, 244.0222222222222, V
88135, 244.81944444444446, N
88356, 245.43333333333334, N
88572, 246.03333333333333, N
88801, 246.66944444444445, N
89037, 247.325, N
89285, 248.01388888888889, N
89549, 248.74722222222223, N
89784, 249.4, N
90008, 250.0222222222222, N
90228, 250.63333333333333, N
90463, 251.2861111111111, N
90704, 251.95555555555555, N
90940, 252.61111111111111, N
91173, 253.25833333333333, N
91408, 253.9111111111111, N
91663, 254.61944444444444, N
91898, 255.2722222222222, N
92140, 255.94444444444446, N
92383, 256.61944444444447, N
92581, 257.1694444444444, V
92834, 257.8722222222222, N
93032, 258.4222222222222, N
93287, 259.13055555555553, N
93511, 259.7527777777778, V
93818, 260.60555555555555, N
94047, 261.2416666666667, V
94292, 261.9222222222222, N
94517, 262.5472222222222, N
94736, 263.15555555555557, N
94965, 263.7916666666667, N
95196, 264.43333333333334, N
95405, 265.0138888888889, V
95676, 265.76666666666665, N
95913, 266.425, N
96152, 267.0888888888889, N
96354, 267.65, V
96637, 268.43611111111113, N
96819, 268.94166666666666, V
97073, 269.64722222222224, N
97290, 270.25, N
97511, 270.8638888888889, N
97734, 271.48333333333335, N
97983, 272.175, N
98234, 272.8722222222222, N
98471, 273.53055555555557, N
98661, 274.05833333333334, V
98907, 274.7416666666667, V
99123, 275.34166666666664, N
99361, 276.0027777777778, N
99592, 276.64444444444445, N
99832, 277.31111111111113, N
99998, 277.77222222222224, V
100289, 278.5805555555556, N
100529, 279.2472222222222, N
100748, 279.85555555555555, N
100949, 280.4138888888889, V
101213, 281.14722222222224, N
101386, 281.6277777777778, V
101648, 282.35555555555555, N
101859, 282.94166666666666, N
102083, 283.56388888888887, N
102352, 284.31111111111113, N
102593, 284.98055555555555, N
102825, 285.625, N
103032, 286.2, N
103238, 286.77222222222224, N
103452, 287.3666666666667, N
103658, 287.93888888888887, N
103878, 288.55, N
104095, 289.15277777777777, V
104336, 289.8222222222222, N
104533, 290.36944444444447, V
104786, 291.0722222222222, N
105015, 291.7083333333333, N
105251, 292.3638888888889, N
105466, 292.9611111111111, N
105681, 293.55833333333334, N
105863, 294.06388888888887, V
106085, 294.68055555555554, N
106262, 295.1722222222222, V
106528, 295.9111111111111, N
106771, 296.5861111111111, N
107015, 297.2638888888889, N
107236, 297.8777777777778, N
107453, 298.48055555555555, N
107656, 299.0444444444444, N
107867, 299.63055555555553, N
108094, 300.2611111111111, N
108321, 300.89166666666665, N
108533, 301.48055555555555, V
108779, 302.1638888888889, N
109014, 302.81666666666666, N
109245, 303.4583333333333, N
109457, 304.0472222222222, N
109682, 304.6722222222222, N
109752, 304.8666666666667, ~
109879, 305.21944444444443, V
110122, 305.89444444444445, N
110335, 306.4861111111111, N
110542, 307.06111111111113, N
110725, 307.56944444444446, V
111000, 308.3333333333333, N
111223, 308.9527777777778, V
111479, 309.6638888888889, N
111700, 310.27777777777777, N
111902, 310.8388888888889, N
112101, 311.39166666666665, N
112306, 311.9611111111111, N
112509, 312.525, N
112736, 313.15555555555557, N
112853, 313.48055555555555, +
112970, 313.80555555555554, V
113206, 314.4611111111111, N
113404, 315.0111111111111, V
113637, 315.65833333333336, N
113834, 316.2055555555556, V
114093, 316.925, N
114287, 317.4638888888889, V
114404, 317.7888888888889, +
114521, 318.1138888888889, N
114719, 318.6638888888889, N
114932, 319.25555555555553, N
115144, 319.84444444444443, V
115376, 320.4888888888889, N
115613, 321.14722222222224, N
115732, 321.47777777777776, ~
115839, 321.775, N
115939, 322.0527777777778, +
116039, 322.3305555555556, V
116262, 322.95, N
116323, 323.11944444444447, ~
116436, 323.43333333333334, V
116662, 324.06111111111113, N
116861, 324.6138888888889, V
117121, 325.3361111111111, N
117313, 325.86944444444447, V
117446, 326.2388888888889, +
117579, 326.60833333333335, N
117805, 327.2361111111111, N
118017, 327.825, N
118211, 328.3638888888889, V
118444, 329.0111111111111, N
118623, 329.5083333333333, V
118881, 330.225, N
119096, 330.8222222222222, N
119325, 331.4583333333333, N
119538, 332.05, N
119785, 332.7361111111111, N
120016, 333.3777777777778, V
120253, 334.0361111111111, N
120442, 334.56111111111113, V
120673, 335.2027777777778, N
120878, 335.77222222222224, N
121097, 336.38055555555553, N
121288, 336.9111111111111, V
121547, 337.63055555555553, N
121759, 338.21944444444443, V
122042, 339.00555555555553, N
122110, 339.19444444444446, ~
122268, 339.6333333333333, N
122484, 340.23333333333335, N
122696, 340.8222222222222, N
122942, 341.50555555555553, N
123128, 342.02222222222224, V
123390, 342.75, N
123612, 343.3666666666667, N
123838, 343.99444444444447, N
124077, 344.65833333333336, N
124322, 345.3388888888889, N
124430, 345.6388888888889, ~
124540, 345.94444444444446, V
124787, 346.63055555555553, N
124976, 347.15555555555557, V
125222, 347.8388888888889, N
125441, 348.4472222222222, N
125684, 349.1222222222222, N
125923, 349.7861111111111, N
126168, 350.46666666666664, N
126411, 351.14166666666665, N
126641, 351.78055555555557, N
126750, 352.0833333333333, +
126860, 352.3888888888889, V
127078, 352.99444444444447, N
127277, 353.5472222222222, V
127542, 354.28333333333336, N
127733, 354.81388888888887, V
128008, 355.5777777777778, N
128203, 356.11944444444447, V
128346, 356.51666666666665, +
128489, 356.9138888888889, N
128740, 357.6111111111111, N
128982, 358.28333333333336, N
129215, 358.93055555555554, N
129418, 359.49444444444447, N
129532, 359.81111111111113, ~
129636, 360.1, N
129870, 360.75, N
130087, 361.35277777777776, N
130152, 361.53333333333336, ~
130339, 362.0527777777778, N
130584, 362.73333333333335, N
130842, 363.45, N
131042, 364.00555555555553, V
131284, 364.6777777777778, N
131466, 365.18333333333334, V
131754, 365.98333333333335, N
131989, 366.6361111111111, N
132235, 367.31944444444446, N
132468, 367.96666666666664, N
132704, 368.6222222222222, N
132929, 369.2472222222222, N
133096, 369.7111111111111, V
133419, 370.60833333333335, N
133618, 371.1611111111111, V
133877, 371.88055555555553, N
134111, 372.53055555555557, N
134336, 373.15555555555557, N
134598, 373.8833333333333, N
134883, 374.675, N
135131, 375.3638888888889, N
135362, 376.00555555555553, N
135583, 376.61944444444447, N
135819, 377.275, N
136034, 377.8722222222222, N
136272, 378.53333333333336, N
136520, 379.22222222222223, N
136761, 379.89166666666665, N
137014, 380.59444444444443, N
137244, 381.23333333333335, N
137479, 381.8861111111111, N
137725, 382.56944444444446, N
137949, 383.19166666666666, N
138173, 383.81388888888887, N
138393, 384.425, N
138625, 385.06944444444446, N
138868, 385.74444444444447, N
138930, 385.9166666666667, ~
139123, 386.4527777777778, N
139382, 387.1722222222222, N
139595, 387.7638888888889, ~
139638, 387.8833333333333, N
139878, 388.55, N
140105, 389.18055555555554, N
140332, 389.81111111111113, N
140584, 390.5111111111111, N
140802, 391.1166666666667, N
141083, 391.89722222222224, N
141162, 392.1166666666667, +
141242, 392.3388888888889, V
141570, 393.25, N
141772, 393.81111111111113, V
142044, 394.56666666666666, N
142226, 395.0722222222222, V
142533, 395.925, N
142740, 396.5, V
142968, 397.1333333333333, N
143161, 397.6694444444444, V
143635, 398.9861111111111, N
143828, 399.52222222222224, V
143988, 399.96666666666664, V
144408, 401.1333333333333, N
144592, 401.64444444444445, V
144759, 402.10833333333335, +
144926, 402.5722222222222, N
145203, 403.34166666666664, N
145484, 404.1222222222222, N
145759, 404.8861111111111, N
146010, 405.5833333333333, N
146268, 406.3, N
146354, 406.5388888888889, +
146441, 406.78055555555557, V
146757, 407.65833333333336, N
146939, 408.1638888888889, V
147215, 408.93055555555554, N
147402, 409.45, V
147711, 410.30833333333334, N
147918, 410.8833333333333, V
148068, 411.3, +
148218, 411.71666666666664, N
148475, 412.43055555555554, N
148710, 413.0833333333333, N
148928, 413.68888888888887, N
149157, 414.325, N
149407, 415.01944444444445, N
149647, 415.68611111111113, N
149900, 416.3888888888889, N
150127, 417.01944444444445, N
150372, 417.7, N
150612, 418.3666666666667, N
150849, 419.025, N
151096, 419.7111111111111, N
151344, 420.4, N
151594, 421.09444444444443, N
151845, 421.7916666666667, N
152116, 422.5444444444444, N
152399, 423.3305555555556, N
152662, 424.06111111111113, N
152921, 424.78055555555557, N
153150, 425.4166666666667, N
153339, 425.94166666666666, A
153613, 426.7027777777778, N
153719, 426.9972222222222, +
153826, 427.2944444444444, V
154260, 428.5, N
154459, 429.0527777777778, V
154799, 429.9972222222222, N
155010, 430.5833333333333, V
155313, 431.425, N
155505, 431.9583333333333, V
155822, 432.8388888888889, N
155997, 433.325, V
156316, 434.2111111111111, N
156519, 434.775, V
156838, 435.6611111111111, N
157023, 436.175, V
157322, 437.00555555555553, N
157512, 437.53333333333336, V
157777, 438.26944444444445, N
157959, 438.775, V
158293, 439.7027777777778, N
158494, 440.2611111111111, V
158812, 441.14444444444445, N
158991, 441.64166666666665, V
159270, 442.4166666666667, N
159455, 442.93055555555554, V
159753, 443.7583333333333, N
159922, 444.22777777777776, V
160086, 444.68333333333334, +
160251, 445.14166666666665, N
160514, 445.8722222222222, N
160719, 446.44166666666666, A
160919, 446.9972222222222, V
161381, 448.28055555555557, N
161560, 448.77777777777777, V
161902, 449.72777777777776, N
162159, 450.44166666666666, N
162417, 451.15833333333336, N
162690, 451.9166666666667, N
162970, 452.69444444444446, N
163235, 453.43055555555554, N
163487, 454.13055555555553, N
163720, 454.77777777777777, N
163821, 455.05833333333334, +
163922, 455.3388888888889, V
164221, 456.1694444444444, N
164411, 456.6972222222222, V
164731, 457.5861111111111, N
164916, 458.1, V
165245, 459.0138888888889, N
165435, 459.5416666666667, V
165751, 460.4194444444444, N
165936, 460.93333333333334, V
166089, 461.35833333333335, +
166243, 461.7861111111111, N
166488, 462.46666666666664, N
166729, 463.1361111111111, N
167002, 463.89444444444445, N
167285, 464.68055555555554, N
167555, 465.43055555555554, N
167650, 465.69444444444446, +
167745, 465.9583333333333, V
168030, 466.75, N
168223, 467.2861111111111, V
168499, 468.0527777777778, N
168687, 468.575, V
169008, 469.46666666666664, N
169197, 469.9916666666667, V
169386, 470.51666666666665, V
169729, 471.46944444444443, N
169910, 471.97222222222223, V
170092, 472.47777777777776, +
170275, 472.9861111111111, N
170527, 473.68611111111113, N
170755, 474.31944444444446, N
171000, 475.0, N
171266, 475.7388888888889, N
171532, 476.47777777777776, N
171814, 477.2611111111111, N
172054, 477.9277777777778, N
172342, 478.72777777777776, N
172432, 478.97777777777776, +
172523, 479.23055555555555, V
172857, 480.15833333333336, N
172987, 480.51944444444445, ~
173061, 480.725, V
173434, 481.7611111111111, N
173646, 482.35, V
174029, 483.4138888888889, N
174227, 483.9638888888889, V
174598, 484.99444444444447, N
174788, 485.52222222222224, V
175150, 486.52777777777777, N
175357, 487.10277777777776, V
175625, 487.84722222222223, ~
175698, 488.05, N
175916, 488.65555555555557, V
176108, 489.18888888888887, +
176300, 489.72222222222223, N
176573, 490.48055555555555, N
176799, 491.10833333333335, N
177033, 491.7583333333333, N
177272, 492.4222222222222, N
177513, 493.09166666666664, N
177774, 493.81666666666666, N
178045, 494.56944444444446, N
178259, 495.1638888888889, V
178525, 495.90277777777777, N
178762, 496.56111111111113, N
178967, 497.13055555555553, V
179258, 497.93888888888887, N
179496, 498.6, N
179740, 499.27777777777777, N
179849, 499.5805555555556, +
179958, 499.8833333333333, V
180257, 500.7138888888889, N
180449, 501.2472222222222, V
180767, 502.13055555555553, N
180969, 502.69166666666666, V
181259, 503.4972222222222, N
181429, 503.96944444444443, V
181721, 504.78055555555557, N
181927, 505.35277777777776, V
182272, 506.31111111111113, N
182480, 506.8888888888889, V
182633, 507.31388888888887, +
182786, 507.7388888888889, N
183034, 508.4277777777778, N
183121, 508.6694444444444, +
183208, 508.9111111111111, V
183507, 509.7416666666667, N
183703, 510.2861111111111, V
184004, 511.1222222222222, N
184208, 511.68888888888887, V
184523, 512.5638888888889, N
184730, 513.1388888888889, V
185050, 514.0277777777778, N
185236, 514.5444444444445, V
185368, 514.9111111111112, +
185500, 515.2777777777778, N
185739, 515.9416666666667, N
185975, 516.5972222222222, N
186212, 517.2555555555556, N
186480, 518.0, N
186770, 518.8055555555555, N
186983, 519.3972222222222, A
187277, 520.2138888888888, N
187357, 520.4361111111111, +
187438, 520.6611111111112, V
187827, 521.7416666666667, N
188018, 522.2722222222222, V
188366, 523.2388888888889, N
188553, 523.7583333333333, V
188716, 524.2111111111111, +
188879, 524.6638888888889, N
189230, 525.6388888888889, N
189521, 526.4472222222222, N
189811, 527.2527777777777, N
190080, 528.0, N
190337, 528.7138888888888, N
190620, 529.5, N
190941, 530.3916666666667, N
191236, 531.2111111111111, N
191505, 531.9583333333334, N
191772, 532.7, N
192037, 533.4361111111111, N
192299, 534.1638888888889, N
192568, 534.9111111111112, N
192852, 535.7, N
193125, 536.4583333333334, N
193381, 537.1694444444445, N
193644, 537.9, N
193920, 538.6666666666666, N
194169, 539.3583333333333, N
194418, 540.05, N
194661, 540.725, N
194918, 541.4388888888889, N
195179, 542.1638888888889, N
195468, 542.9666666666667, N
195753, 543.7583333333333, N
196001, 544.4472222222222, N
196245, 545.125, N
196485, 545.7916666666666, N
196756, 546.5444444444445, N
197026, 547.2944444444445, N
197300, 548.0555555555555, N
197544, 548.7333333333333, N
197794, 549.4277777777778, N
198044, 550.1222222222223, N
198288, 550.8, N
198537, 551.4916666666667, N
198793, 552.2027777777778, N
199039, 552.8861111111111, N
199288, 553.5777777777778, N
199566, 554.35, N
199868, 555.1888888888889, N
200130, 555.9166666666666, N
200382, 556.6166666666667, N
200624, 557.2888888888889, N
200864, 557.9555555555555, N
201097, 558.6027777777778, N
201359, 559.3305555555555, N
201651, 560.1416666666667, N
201918, 560.8833333333333, N
202181, 561.6138888888889, N
202437, 562.325, N
202543, 562.6194444444444, +
202649, 562.9138888888889, V
202959, 563.775, N
203152, 564.3111111111111, V
203461, 565.1694444444445, N
203662, 565.7277777777778, V
203980, 566.6111111111111, N
204189, 567.1916666666667, V
204516, 568.1, N
204740, 568.7222222222222, V
205010, 569.4722222222222, N
205185, 569.9583333333334, V
205477, 570.7694444444444, N
205688, 571.3555555555556, V
206014, 572.2611111111111, N
206225, 572.8472222222222, V
206513, 573.6472222222222, N
206697, 574.1583333333333, V
206977, 574.9361111111111, N
207163, 575.4527777777778, V
207457, 576.2694444444444, N
207653, 576.8138888888889, V
207887, 577.4638888888888, V
208061, 577.9472222222222, ~
208194, 578.3166666666667, N
208413, 578.925, V
208730, 579.8055555555555, N
208920, 580.3333333333334, V
209212, 581.1444444444444, N
209389, 581.6361111111111, V
209652, 582.3666666666667, N
209841, 582.8916666666667, V
210162, 583.7833333333333, N
210370, 584.3611111111111, V
210703, 585.2861111111112, N
210889, 585.8027777777778, V
211174, 586.5944444444444, N
211360, 587.1111111111111, V
211666, 587.9611111111111, N
211855, 588.4861111111111, V
211925, 588.6805555555555, ~
212176, 589.3777777777777, N
212400, 590.0, V
212660, 590.7222222222222, N
212870, 591.3055555555555, V
213203, 592.2305555555556, N
213389, 592.7472222222223, V
213565, 593.2361111111111, ~
213716, 593.6555555555556, N
213905, 594.1805555555555, V
214195, 594.9861111111111, N
214403, 595.5638888888889, V
214780, 596.6111111111111, N
215025, 597.2916666666666, V
215324, 598.1222222222223, N
215513, 598.6472222222222, V
215806, 599.4611111111111, N
215979, 599.9416666666667, V
216300, 600.8333333333334, N
216565, 601.5694444444445, V
216810, 602.25, V
217121, 603.1138888888889, N
217288, 603.5777777777778, V
217465, 604.0694444444445, V
217800, 605.0, ~
217895, 605.2638888888889, N
218093, 605.8138888888889, V
218236, 606.2111111111111, +
218313, 606.425, ~
218379, 606.6083333333333, N
218629, 607.3027777777778, N
218881, 608.0027777777777, F
219157, 608.7694444444444, N
219266, 609.0722222222222, +
219376, 609.3777777777777, V
219498, 609.7166666666667, ~
219683, 610.2305555555556, N
219865, 610.7361111111111, V
220135, 611.4861111111111, N
220311, 611.975, V
220638, 612.8833333333333, N
220847, 613.4638888888888, V
221176, 614.3777777777777, N
221367, 614.9083333333333, V
221665, 615.7361111111111, N
221859, 616.275, V
222004, 616.6777777777778, +
222054, 616.8166666666667, ~
222150, 617.0833333333334, N
222393, 617.7583333333333, N
222637, 618.4361111111111, N
222869, 619.0805555555555, N
223129, 619.8027777777778, N
223379, 620.4972222222223, N
223651, 621.2527777777777, N
223744, 621.5111111111111, ~
223910, 621.9722222222222, N
224155, 622.6527777777778, N
224379, 623.275, N
224615, 623.9305555555555, N
224850, 624.5833333333334, N
224948, 624.8555555555556, ~
225104, 625.2888888888889, N
225382, 626.0611111111111, N
225660, 626.8333333333334, N
225894, 627.4833333333333, A
225962, 627.6722222222222, ~
226161, 628.225, N
226356, 628.7666666666667, V
226680, 629.6666666666666, N
226766, 629.9055555555556, +
226859, 630.1638888888889, V
227018, 630.6055555555556, V
227195, 631.0972222222222, V
227379, 631.6083333333333, +
227616, 632.2666666666667, N
227842, 632.8944444444444, V
228234, 633.9833333333333, N
228427, 634.5194444444444, V
228676, 635.2111111111111, ~
228744, 635.4, N
228976, 636.0444444444445, N
229207, 636.6861111111111, N
229464, 637.4, N
229739, 638.1638888888889, N
230010, 638.9166666666666, N
230244, 639.5666666666667, N
230480, 640.2222222222222, N
230718, 640.8833333333333, N
230812, 641.1444444444444, +
230906, 641.4055555555556, V
231170, 642.1388888888889, N
231363, 642.675, V
231665, 643.5138888888889, N
231889, 644.1361111111111, V
232155, 644.875, N
232377, 645.4916666666667, V
232515, 645.875, +
232654, 646.2611111111111, N
232889, 646.9138888888889, N
233122, 647.5611111111111, N
233316, 648.1, V
233553, 648.7583333333333, N
233752, 649.3111111111111, V
234032, 650.0888888888888, N
234243, 650.675, V
234431, 651.1972222222222, V
234778, 652.1611111111112, N
234980, 652.7222222222222, V
235218, 653.3833333333333, N
235448, 654.0222222222222, N
235696, 654.7111111111111, N
235911, 655.3083333333333, V
236194, 656.0944444444444, N
236384, 656.6222222222223, V
236661, 657.3916666666667, N
236892, 658.0333333333333, N
237121, 658.6694444444445, N
237321, 659.225, V
237584, 659.9555555555555, N
237777, 660.4916666666667, V
238021, 661.1694444444445, N
238255, 661.8194444444445, N
238514, 662.5388888888889, N
238731, 663.1416666666667, V
238899, 663.6083333333333, V
239231, 664.5305555555556, N
239454, 665.15, N
239670, 665.75, N
239854, 666.2611111111111, V
240119, 666.9972222222223, N
240320, 667.5555555555555, V
240611, 668.3638888888889, N
240856, 669.0444444444445, N
241077, 669.6583333333333, N
241267, 670.1861111111111, V
241537, 670.9361111111111, N
241771, 671.5861111111111, N
241981, 672.1694444444445, N
242167, 672.6861111111111, V
242435, 673.4305555555555, N
242684, 674.1222222222223, N
242918, 674.7722222222222, N
243128, 675.3555555555556, V
243400, 676.1111111111111, N
243583, 676.6194444444444, V
243850, 677.3611111111111, N
244056, 677.9333333333333, N
244277, 678.5472222222222, N
244486, 679.1277777777777, V
244778, 679.9388888888889, N
244984, 680.5111111111111, V
245261, 681.2805555555556, N
245489, 681.9138888888889, N
245719, 682.5527777777778, N
245897, 683.0472222222222, V
246132, 683.7, N
246320, 684.2222222222222, V
246605, 685.0138888888889, N
246853, 685.7027777777778, N
247080, 686.3333333333334, N
247300, 686.9444444444445, V
247585, 687.7361111111111, N
247780, 688.2777777777778, V
248043, 689.0083333333333, N
248247, 689.575, N
248453, 690.1472222222222, N
248652, 690.7, V
248903, 691.3972222222222, N
249106, 691.9611111111111, V
249413, 692.8138888888889, N
249647, 693.4638888888888, N
249871, 694.0861111111111, N
250083, 694.675, N
250305, 695.2916666666666, N
250542, 695.95, N
250764, 696.5666666666667, N
250853, 696.8138888888889, ~
250978, 697.1611111111112, N
251221, 697.8361111111111, N
251426, 698.4055555555556, V
251705, 699.1805555555555, N
251885, 699.6805555555555, V
252147, 700.4083333333333, N
252387, 701.075, N
252606, 701.6833333333333, N
252829, 702.3027777777778, N
253035, 702.875, N
253265, 703.5138888888889, N
253504, 704.1777777777778, N
253787, 704.9638888888888, N
254030, 705.6388888888889, N
254250, 706.25, N
254467, 706.8527777777778, N
254686, 707.4611111111111, N
254873, 707.9805555555556, A
255127, 708.6861111111111, N
255242, 709.0055555555556, +
255358, 709.3277777777778, V
255629, 710.0805555555555, N
255834, 710.65, V
256093, 711.3694444444444, N
256297, 711.9361111111111, V
256435, 712.3194444444445, +
256574, 712.7055555555555, N
256815, 713.375, N
257051, 714.0305555555556, N
257145, 714.2916666666666, +
257239, 714.5527777777778, V
257493, 715.2583333333333, N
257684, 715.7888888888889, V
257974, 716.5944444444444, N
258204, 717.2333333333333, V
258347, 717.6305555555556, +
258490, 718.0277777777778, N
258718, 718.6611111111112, N
258943, 719.2861111111112, N
259119, 719.775, V
259387, 720.5194444444444, N
259588, 721.0777777777778, V
259907, 721.9638888888888, N
260179, 722.7194444444444, N
260413, 723.3694444444444, N
260626, 723.9611111111111, A
260878, 724.6611111111112, N
261069, 725.1916666666667, V
261345, 725.9583333333334, N
261539, 726.4972222222223, V
261830, 727.3055555555555, N
262071, 727.975, N
262323, 728.675, N
262568, 729.3555555555556, N
262842, 730.1166666666667, N
263041, 730.6694444444445, V
263300, 731.3888888888889, N
263473, 731.8694444444444, V
263762, 732.6722222222222, N
264002, 733.3388888888888, N
264262, 734.0611111111111, N
264534, 734.8166666666667, N
264777, 735.4916666666667, N
265013, 736.1472222222222, N
265237, 736.7694444444444, N
265481, 737.4472222222222, N
265730, 738.1388888888889, N
265975, 738.8194444444445, N
266206, 739.4611111111111, N
266460, 740.1666666666666, N
266720, 740.8888888888889, N
266806, 741.1277777777777, +
266893, 741.3694444444444, V
267212, 742.2555555555556, N
267417, 742.825, V
267704, 743.6222222222223, N
267910, 744.1944444444445, V
268039, 744.5527777777778, +
268168, 744.9111111111112, N
268397, 745.5472222222222, A
268704, 746.4, N
268810, 746.6944444444445, +
268917, 746.9916666666667, V
269237, 747.8805555555556, N
269418, 748.3833333333333, V
269713, 749.2027777777778, N
269887, 749.6861111111111, V
270187, 750.5194444444444, N
270391, 751.0861111111111, V
270562, 751.5611111111111, +
270733, 752.0361111111112, N
270768, 752.1333333333333, ~
270995, 752.7638888888889, N
271242, 753.45, N
271505, 754.1805555555555, N
271759, 754.8861111111111, N
271977, 755.4916666666667, N
272206, 756.1277777777777, N
272438, 756.7722222222222, N
272685, 757.4583333333334, N
272924, 758.1222222222223, N
273187, 758.8527777777778, N
273456, 759.6, N
273690, 760.25, N
273923, 760.8972222222222, N
274140, 761.5, N
274379, 762.1638888888889, N
274641, 762.8916666666667, N
274903, 763.6194444444444, N
275167, 764.3527777777778, N
275422, 765.0611111111111, N
275671, 765.7527777777777, N
275900, 766.3888888888889, N
276143, 767.0638888888889, N
276394, 767.7611111111111, N
276633, 768.425, N
276877, 769.1027777777778, N
277094, 769.7055555555555, A
277386, 770.5166666666667, N
277678, 771.3277777777778, N
277925, 772.0138888888889, N
278189, 772.7472222222223, N
278425, 773.4027777777778, N
278640, 774.0, N
278891, 774.6972222222222, N
279158, 775.4388888888889, N
279431, 776.1972222222222, N
279713, 776.9805555555556, N
279970, 777.6944444444445, N
280214, 778.3722222222223, N
280472, 779.0888888888888, N
280576, 779.3777777777777, +
280680, 779.6666666666666, V
280988, 780.5222222222222, N
281196, 781.1, V
281482, 781.8944444444444, N
281717, 782.5472222222222, V
281850, 782.9166666666666, +
281984, 783.2888888888889, N
282254, 784.0388888888889, N
282508, 784.7444444444444, N
282737, 785.3805555555556, N
282958, 785.9944444444444, N
283165, 786.5694444444445, A
283433, 787.3138888888889, N
283560, 787.6666666666666, +
283687, 788.0194444444444, V
283965, 788.7916666666666, N
284159, 789.3305555555555, V
284437, 790.1027777777778, N
284620, 790.6111111111111, V
284895, 791.375, N
285084, 791.9, V
285387, 792.7416666666667, N
285574, 793.2611111111111, V
285736, 793.7111111111111, +
285898, 794.1611111111112, N
286152, 794.8666666666667, N
286414, 795.5944444444444, N
286526, 795.9055555555556, +
286638, 796.2166666666667, V
286913, 796.9805555555556, N
287095, 797.4861111111111, V
287359, 798.2194444444444, N
287541, 798.725, V
287835, 799.5416666666666, N
288045, 800.125, V
288212, 800.5888888888888, +
288379, 801.0527777777778, N
288606, 801.6833333333333, N
288867, 802.4083333333333, N
289043, 802.8972222222222, V
289316, 803.6555555555556, N
289512, 804.2, V
289669, 804.6361111111111, V
290071, 805.7527777777777, N
290260, 806.2777777777778, V
290561, 807.1138888888889, N
290801, 807.7805555555556, N
291036, 808.4333333333333, N
291270, 809.0833333333334, N
291504, 809.7333333333333, N
291724, 810.3444444444444, N
291953, 810.9805555555556, N
292063, 811.2861111111112, +
292173, 811.5916666666667, V
292441, 812.3361111111111, N
292676, 812.9888888888889, V
292959, 813.775, N
293143, 814.2861111111112, V
293270, 814.6388888888889, +
293397, 814.9916666666667, N
293621, 815.6138888888889, N
293834, 816.2055555555555, N
294034, 816.7611111111111, V
294307, 817.5194444444444, N
294523, 818.1194444444444, V
294808, 818.9111111111112, N
295033, 819.5361111111112, N
295255, 820.1527777777778, N
295491, 820.8083333333333, N
295727, 821.4638888888888, N
295949, 822.0805555555555, N
296171, 822.6972222222222, N
296395, 823.3194444444445, N
296630, 823.9722222222222, N
296873, 824.6472222222222, N
297119, 825.3305555555555, N
297339, 825.9416666666667, V
297597, 826.6583333333333, N
297790, 827.1944444444445, V
298023, 827.8416666666667, N
298232, 828.4222222222222, N
298464, 829.0666666666667, N
298701, 829.725, V
298979, 830.4972222222223, V
299227, 831.1861111111111, N
299442, 831.7833333333333, N
299656, 832.3777777777777, N
299873, 832.9805555555556, N
300087, 833.575, N
300306, 834.1833333333333, N
300542, 834.8388888888888, N
300756, 835.4333333333333, N
300986, 836.0722222222222, N
301209, 836.6916666666667, N
301415, 837.2638888888889, V
301691, 838.0305555555556, N
301912, 838.6444444444444, N
302135, 839.2638888888889, N
302312, 839.7555555555556, V
302537, 840.3805555555556, N
302753, 840.9805555555556, N
302965, 841.5694444444445, N
303186, 842.1833333333333, V
303440, 842.8888888888889, N
303666, 843.5166666666667, N
303882, 844.1166666666667, N
304069, 844.6361111111111, V
304278, 845.2166666666667, N
304495, 845.8194444444445, N
304725, 846.4583333333334, N
304924, 847.0111111111111, V
305161, 847.6694444444445, N
305376, 848.2666666666667, N
305593, 848.8694444444444, N
305806, 849.4611111111111, V
306018, 850.05, N
306230, 850.6388888888889, N
306449, 851.2472222222223, N
306650, 851.8055555555555, N
306855, 852.375, N
307051, 852.9194444444445, N
307262, 853.5055555555556, N
307497, 854.1583333333333, N
307741, 854.8361111111111, N
307960, 855.4444444444445, N
308179, 856.0527777777778, N
308374, 856.5944444444444, N
308564, 857.1222222222223, N
308765, 857.6805555555555, N
308956, 858.2111111111111, N
309168, 858.8, N
309396, 859.4333333333333, N
309625, 860.0694444444445, N
309855, 860.7083333333334, N
310066, 861.2944444444445, N
310270, 861.8611111111111, N
310488, 862.4666666666667, N
310715, 863.0972222222222, N
310919, 863.6638888888889, N
311132, 864.2555555555556, N
311324, 864.7888888888889, N
311532, 865.3666666666667, N
311760, 866.0, N
311974, 866.5944444444444, N
312207, 867.2416666666667, N
312436, 867.8777777777777, N
312646, 868.4611111111111, N
312852, 869.0333333333333, N
313046, 869.5722222222222, N
313240, 870.1111111111111, N
313455, 870.7083333333334, N
313693, 871.3694444444444, N
313921, 872.0027777777777, N
314163, 872.675, N
314371, 873.2527777777777, N
314580, 873.8333333333334, N
314802, 874.45, N
314995, 874.9861111111111, N
315209, 875.5805555555555, N
315425, 876.1805555555555, N
315628, 876.7444444444444, V
315856, 877.3777777777777, N
316074, 877.9833333333333, N
316297, 878.6027777777778, N
316538, 879.2722222222222, N
316778, 879.9388888888889, N
316991, 880.5305555555556, N
317208, 881.1333333333333, N
317405, 881.6805555555555, N
317601, 882.225, N
317818, 882.8277777777778, N
318031, 883.4194444444445, N
318270, 884.0833333333334, N
318523, 884.7861111111112, N
318757, 885.4361111111111, N
318982, 886.0611111111111, N
319182, 886.6166666666667, N
319386, 887.1833333333333, N
319608, 887.8, N
319830, 888.4166666666666, N
320052, 889.0333333333333, N
320279, 889.6638888888889, N
320502, 890.2833333333333, N
320718, 890.8833333333333, N
320940, 891.5, N
321164, 892.1222222222223, N
321379, 892.7194444444444, N
321602, 893.3388888888888, N
321806, 893.9055555555556, N
322018, 894.4944444444444, N
322217, 895.0472222222222, N
322447, 895.6861111111111, N
322512, 895.8666666666667, ~
322680, 896.3333333333334, V
322956, 897.1, N
323178, 897.7166666666667, N
323392, 898.3111111111111, N
323603, 898.8972222222222, N
323812, 899.4777777777778, N
323987, 899.9638888888888, V
324232, 900.6444444444444, N
324467, 901.2972222222222, N
324702, 901.95, N
324933, 902.5916666666667, N
325154, 903.2055555555555, N
325380, 903.8333333333334, N
325612, 904.4777777777778, N
325840, 905.1111111111111, N
326054, 905.7055555555555, N
326263, 906.2861111111112, N
326473, 906.8694444444444, N
326690, 907.4722222222222, N
326913, 908.0916666666667, N
327155, 908.7638888888889, N
327388, 909.4111111111112, N
327633, 910.0916666666667, N
327845, 910.6805555555555, N
328063, 911.2861111111112, N
328264, 911.8444444444444, N
328485, 912.4583333333334, N
328734, 913.15, N
328944, 913.7333333333333, N
329208, 914.4666666666667, N
329400, 915.0, V
329660, 915.7222222222222, N
329887, 916.3527777777778, N
330100, 916.9444444444445, N
330322, 917.5611111111111, N
330561, 918.225, N
330754, 918.7611111111111, V
331021, 919.5027777777777, N
331248, 920.1333333333333, N
331501, 920.8361111111111, N
331726, 921.4611111111111, V
332001, 922.225, N
332210, 922.8055555555555, N
332422, 923.3944444444444, N
332601, 923.8916666666667, V
332871, 924.6416666666667, N
333092, 925.2555555555556, N
333336, 925.9333333333333, N
333600, 926.6666666666666, N
333836, 927.3222222222222, N
334045, 927.9027777777778, N
334267, 928.5194444444444, N
334457, 929.0472222222222, V
334735, 929.8194444444445, N
334957, 930.4361111111111, N
335194, 931.0944444444444, N
335424, 931.7333333333333, N
335670, 932.4166666666666, N
335767, 932.6861111111111, ~
335921, 933.1138888888889, N
336145, 933.7361111111111, N
336390, 934.4166666666666, N
336627, 935.075, N
336835, 935.6527777777778, N
337073, 936.3138888888889, N
337168, 936.5777777777778, +
337263, 936.8416666666667, V
337529, 937.5805555555555, N
337753, 938.2027777777778, V
338071, 939.0861111111111, N
338281, 939.6694444444445, V
338417, 940.0472222222222, +
338553, 940.425, N
338777, 941.0472222222222, N
339008, 941.6888888888889, N
339228, 942.3, N
339471, 942.975, N
339738, 943.7166666666667, N
339989, 944.4138888888889, N
340242, 945.1166666666667, N
340338, 945.3833333333333, +
340435, 945.6527777777778, V
340610, 946.1388888888889, V
340959, 947.1083333333333, V
341142, 947.6166666666667, V
341352, 948.2, +
341426, 948.4055555555556, N
341648, 949.0222222222222, N
341877, 949.6583333333333, N
342122, 950.3388888888888, N
342308, 950.8555555555556, V
342621, 951.725, N
342834, 952.3166666666667, V
342982, 952.7277777777778, ~
343082, 953.0055555555556, N
343295, 953.5972222222222, N
343512, 954.2, N
343761, 954.8916666666667, N
344018, 955.6055555555556, N
344273, 956.3138888888889, N
344521, 957.0027777777777, N
344745, 957.625, N
344995, 958.3194444444445, N
345092, 958.5888888888888, +
345189, 958.8583333333333, V
345451, 959.5861111111111, N
345642, 960.1166666666667, V
345927, 960.9083333333333, N
346118, 961.4388888888889, V
346403, 962.2305555555556, N
346609, 962.8027777777778, V
346933, 963.7027777777778, N
347121, 964.225, V
347264, 964.6222222222223, +
347407, 965.0194444444444, N
347591, 965.5305555555556, A
347846, 966.2388888888889, N
347942, 966.5055555555556, +
347954, 966.5388888888889, ~
348038, 966.7722222222222, V
348329, 967.5805555555555, N
348534, 968.15, V
348841, 969.0027777777777, N
349032, 969.5333333333333, V
349318, 970.3277777777778, N
349495, 970.8194444444445, V
349771, 971.5861111111111, N
349970, 972.1388888888889, V
350112, 972.5333333333333, +
350255, 972.9305555555555, N
350459, 973.4972222222223, A
350724, 974.2333333333333, N
350828, 974.5222222222222, +
350933, 974.8138888888889, V
351206, 975.5722222222222, N
351406, 976.1277777777777, V
351691, 976.9194444444445, N
351817, 977.2694444444444, ~
351884, 977.4555555555555, V
352155, 978.2083333333334, N
352331, 978.6972222222222, V
352624, 979.5111111111111, V
352765, 979.9027777777778, +
352906, 980.2944444444445, N
353180, 981.0555555555555, N
353351, 981.5305555555556, ~
353441, 981.7805555555556, N
353659, 982.3861111111111, N
353883, 983.0083333333333, N
354110, 983.6388888888889, N
354197, 983.8805555555556, +
354285, 984.125, V
354583, 984.9527777777778, N
354801, 985.5583333333333, V
355092, 986.3666666666667, N
355295, 986.9305555555555, V
355601, 987.7805555555556, N
355800, 988.3333333333334, V
355958, 988.7722222222222, +
356116, 989.2111111111111, N
356366, 989.9055555555556, N
356458, 990.1611111111112, +
356550, 990.4166666666666, V
356827, 991.1861111111111, N
357052, 991.8111111111111, V
357364, 992.6777777777778, N
357572, 993.2555555555556, V
357946, 994.2944444444445, N
358124, 994.7888888888889, V
358419, 995.6083333333333, N
358600, 996.1111111111111, V
358754, 996.5388888888889, +
358909, 996.9694444444444, N
359185, 997.7361111111111, N
359466, 998.5166666666667, N
359713, 999.2027777777778, N
359947, 999.8527777777778, N
360163, 1000.4527777777778, N
360399, 1001.1083333333333, N
360605, 1001.6805555555555, V
360887, 1002.4638888888888, N
361074, 1002.9833333333333, V
361226, 1003.4055555555556, V
361610, 1004.4722222222222, N
361716, 1004.7666666666667, +
361822, 1005.0611111111111, V
362046, 1005.6833333333333, ~
362142, 1005.95, N
362339, 1006.4972222222223, V
362594, 1007.2055555555555, N
362761, 1007.6694444444445, V
363043, 1008.4527777777778, N
363232, 1008.9777777777778, V
363530, 1009.8055555555555, N
363738, 1010.3833333333333, V
364070, 1011.3055555555555, N
364258, 1011.8277777777778, V
364527, 1012.575, N
364704, 1013.0666666666667, V
365003, 1013.8972222222222, N
365204, 1014.4555555555555, V
365501, 1015.2805555555556, N
365686, 1015.7944444444445, V
365987, 1016.6305555555556, N
366195, 1017.2083333333334, V
366477, 1017.9916666666667, N
366666, 1018.5166666666667, V
366962, 1019.3388888888888, N
367142, 1019.8388888888888, V
367404, 1020.5666666666667, N
367578, 1021.05, V
367906, 1021.9611111111111, N
368134, 1022.5944444444444, V
368450, 1023.4722222222222, N
368639, 1023.9972222222223, V
368919, 1024.775, N
369103, 1025.286111111111, V
369367, 1026.0194444444444, N
369557, 1026.5472222222222, V
369876, 1027.4333333333334, N
370081, 1028.0027777777777, V
370401, 1028.8916666666667, N
370586, 1029.4055555555556, V
370896, 1030.2666666666667, N
371102, 1030.838888888889, V
371400, 1031.6666666666667, N
371587, 1032.1861111111111, V
371883, 1033.0083333333334, N
372074, 1033.5388888888888, V
372404, 1034.4555555555555, N
372612, 1035.0333333333333, V
372928, 1035.911111111111, N
373132, 1036.4777777777779, V
373273, 1036.8694444444445, V
373706, 1038.0722222222223, N
373898, 1038.6055555555556, V
374353, 1039.8694444444445, N
374584, 1040.5111111111112, V
374750, 1040.9722222222222, +
374916, 1041.4333333333334, N
375168, 1042.1333333333334, N
375412, 1042.8111111111111, N
375662, 1043.5055555555555, N
375883, 1044.1194444444445, A
376160, 1044.888888888889, N
376430, 1045.638888888889, N
376680, 1046.3333333333333, N
376952, 1047.088888888889, N
377244, 1047.9, N
377494, 1048.5944444444444, N
377742, 1049.2833333333333, N
377980, 1049.9444444444443, N
378234, 1050.65, N
378493, 1051.3694444444445, N
378788, 1052.1888888888889, N
379038, 1052.8833333333334, N
379322, 1053.6722222222222, N
379702, 1054.7277777777779, N
379800, 1055.0, +
379898, 1055.2722222222221, V
380295, 1056.375, N
380487, 1056.9083333333333, V
380915, 1058.0972222222222, N
381119, 1058.6638888888888, V
381525, 1059.7916666666667, N
381717, 1060.325, V
382088, 1061.3555555555556, N
382304, 1061.9555555555555, V
382620, 1062.8333333333333, N
382803, 1063.3416666666667, V
383168, 1064.3555555555556, N
383451, 1065.1416666666667, V
383761, 1066.0027777777777, N
383952, 1066.5333333333333, V
384244, 1067.3444444444444, N
384439, 1067.8861111111112, V
384748, 1068.7444444444445, N
384946, 1069.2944444444445, V
385313, 1070.3138888888889, N
385419, 1070.6083333333333, +
385515, 1070.875, V
385684, 1071.3444444444444, V
385887, 1071.9083333333333, F
386019, 1072.275, +
386082, 1072.45, N
386288, 1073.0222222222221, V
386608, 1073.911111111111, N
386805, 1074.4583333333333, V
387113, 1075.3138888888889, N
387307, 1075.8527777777779, V
387636, 1076.7666666666667, N
387844, 1077.3444444444444, V
388175, 1078.263888888889, N
388365, 1078.7916666666667, V
388660, 1079.611111111111, N
388834, 1080.0944444444444, V
389161, 1081.0027777777777, N
389384, 1081.6222222222223, V
389741, 1082.6138888888888, N
389941, 1083.1694444444445, V
390259, 1084.0527777777777, N
390455, 1084.5972222222222, V
390762, 1085.45, N
390947, 1085.963888888889, V
391285, 1086.9027777777778, N
391483, 1087.4527777777778, V
391829, 1088.4138888888888, N
392027, 1088.963888888889, V
392398, 1089.9944444444445, N
392599, 1090.5527777777777, V
392924, 1091.4555555555555, N
393102, 1091.95, V
393433, 1092.8694444444445, N
393656, 1093.4888888888888, V
393996, 1094.4333333333334, N
394234, 1095.0944444444444, V
394571, 1096.0305555555556, N
394763, 1096.5638888888889, V
394913, 1096.9805555555556, V
395352, 1098.2, N
395557, 1098.7694444444444, V
395930, 1099.8055555555557, N
396038, 1100.1055555555556, +
396126, 1100.35, V
396325, 1100.9027777777778, V
396468, 1101.3, V
396585, 1101.625, V
396825, 1102.2916666666667, +
396904, 1102.5111111111112, N
397091, 1103.0305555555556, V
397521, 1104.225, N
397718, 1104.7722222222221, V
398082, 1105.7833333333333, N
398314, 1106.4277777777777, V
398647, 1107.3527777777779, V
399037, 1108.4361111111111, N
399221, 1108.9472222222223, V
399576, 1109.9333333333334, N
399754, 1110.4277777777777, V
400143, 1111.5083333333334, N
400371, 1112.1416666666667, V
400771, 1113.2527777777777, N
400987, 1113.8527777777779, V
401310, 1114.75, N
401553, 1115.425, V
401839, 1116.2194444444444, N
402030, 1116.75, V
402348, 1117.6333333333334, N
402556, 1118.2111111111112, V
402724, 1118.6777777777777, V
403149, 1119.8583333333333, N
403357, 1120.4361111111111, V
403659, 1121.275, N
403844, 1121.7888888888888, V
404125, 1122.5694444444443, N
404331, 1123.1416666666667, V
404685, 1124.125, N
404899, 1124.7194444444444, V
405057, 1125.1583333333333, +
405215, 1125.5972222222222, N
405460, 1126.2777777777778, N
405554, 1126.5388888888888, +
405648, 1126.8, V
405929, 1127.5805555555555, N
406130, 1128.138888888889, V
406428, 1128.9666666666667, N
406620, 1129.5, V
406896, 1130.2666666666667, N
407075, 1130.763888888889, V
407450, 1131.8055555555557, N
407653, 1132.3694444444445, V
407973, 1133.2583333333334, N
408085, 1133.5694444444443, +
408148, 1133.7444444444445, V
408325, 1134.236111111111, V
408537, 1134.825, V
408863, 1135.7305555555556, +
408951, 1135.975, N
409157, 1136.5472222222222, V
409507, 1137.5194444444444, N
409703, 1138.0638888888889, V
409996, 1138.8777777777777, N
410177, 1139.3805555555555, V
410500, 1140.2777777777778, N
410689, 1140.8027777777777, V
411030, 1141.75, N
411227, 1142.2972222222222, V
411391, 1142.7527777777777, ~
411548, 1143.1888888888889, N
411739, 1143.7194444444444, V
412042, 1144.5611111111111, N
412237, 1145.1027777777779, V
412539, 1145.9416666666666, N
412726, 1146.4611111111112, V
413027, 1147.2972222222222, N
413149, 1147.6361111111112, ~
413236, 1147.8777777777777, V
413609, 1148.9138888888888, N
413807, 1149.463888888889, V
413979, 1149.9416666666666, V
414362, 1151.0055555555555, N
414539, 1151.4972222222223, V
414691, 1151.9194444444445, +
414843, 1152.3416666666667, N
415105, 1153.0694444444443, N
415384, 1153.8444444444444, N
415655, 1154.5972222222222, N
415894, 1155.2611111111112, N
416153, 1155.9805555555556, N
416412, 1156.7, N
416680, 1157.4444444444443, N
416868, 1157.9666666666667, V
417132, 1158.7, N
417346, 1159.2944444444445, V
417497, 1159.713888888889, V
417973, 1161.036111111111, N
418075, 1161.3194444444443, +
418178, 1161.6055555555556, V
418568, 1162.6888888888889, N
418782, 1163.2833333333333, V
419057, 1164.0472222222222, N
419280, 1164.6666666666667, V
419444, 1165.1222222222223, +
419608, 1165.5777777777778, N
419895, 1166.375, N
420004, 1166.6777777777777, +
420113, 1166.9805555555556, V
420416, 1167.8222222222223, N
420614, 1168.3722222222223, V
420898, 1169.161111111111, N
421085, 1169.6805555555557, V
421391, 1170.5305555555556, N
421602, 1171.1166666666666, V
421932, 1172.0333333333333, N
422128, 1172.5777777777778, V
422462, 1173.5055555555555, N
422677, 1174.1027777777779, V
422877, 1174.6583333333333, V
423246, 1175.6833333333334, N
423427, 1176.1861111111111, V
423744, 1177.0666666666666, N
423946, 1177.6277777777777, V
424280, 1178.5555555555557, N
424496, 1179.1555555555556, V
424825, 1180.0694444444443, N
425022, 1180.6166666666666, V
425300, 1181.388888888889, N
425487, 1181.9083333333333, V
425829, 1182.8583333333333, N
426037, 1183.4361111111111, V
426214, 1183.9277777777777, V
426624, 1185.0666666666666, N
426822, 1185.6166666666666, V
427124, 1186.4555555555555, N
427328, 1187.0222222222221, V
427632, 1187.8666666666666, N
427809, 1188.3583333333333, V
428095, 1189.1527777777778, N
428291, 1189.6972222222223, V
428620, 1190.611111111111, N
428850, 1191.25, V
429169, 1192.1361111111112, N
429359, 1192.6638888888888, V
429610, 1193.361111111111, N
429791, 1193.8638888888888, V
430116, 1194.7666666666667, N
430325, 1195.3472222222222, V
430684, 1196.3444444444444, N
430881, 1196.8916666666667, V
431196, 1197.7666666666667, N
431386, 1198.2944444444445, V
431555, 1198.763888888889, V
431943, 1199.8416666666667, N
432138, 1200.3833333333334, V
432419, 1201.1638888888888, N
432619, 1201.7194444444444, V
432913, 1202.536111111111, N
433113, 1203.0916666666667, V
433450, 1204.0277777777778, N
433656, 1204.6, V
433950, 1205.4166666666667, N
434142, 1205.95, V
434426, 1206.7388888888888, N
434634, 1207.3166666666666, V
434991, 1208.3083333333334, N
435219, 1208.9416666666666, V
435524, 1209.7888888888888, N
435713, 1210.3138888888889, V
436004, 1211.1222222222223, N
436189, 1211.6361111111112, V
436480, 1212.4444444444443, N
436696, 1213.0444444444445, V
436996, 1213.8777777777777, N
437194, 1214.4277777777777, V
437497, 1215.2694444444444, N
437710, 1215.861111111111, V
438002, 1216.6722222222222, N
438200, 1217.2222222222222, V
438462, 1217.95, N
438649, 1218.4694444444444, V
438938, 1219.2722222222221, N
439135, 1219.8194444444443, V
439456, 1220.7111111111112, N
439679, 1221.3305555555555, V
439985, 1222.1805555555557, N
440179, 1222.7194444444444, V
440450, 1223.4722222222222, N
440643, 1224.0083333333334, V
440942, 1224.838888888889, N
441146, 1225.4055555555556, V
441477, 1226.325, N
441678, 1226.8833333333334, V
442006, 1227.7944444444445, N
442199, 1228.3305555555555, V
442471, 1229.0861111111112, N
442675, 1229.6527777777778, V
442991, 1230.5305555555556, N
443183, 1231.0638888888889, V
443465, 1231.8472222222222, N
443684, 1232.4555555555555, V
444039, 1233.4416666666666, N
444241, 1234.0027777777777, V
444525, 1234.7916666666667, N
444715, 1235.3194444444443, V
444987, 1236.075, N
445164, 1236.5666666666666, V
445417, 1237.2694444444444, ~
445473, 1237.425, N
445692, 1238.0333333333333, V
446006, 1238.9055555555556, N
446215, 1239.486111111111, V
446498, 1240.2722222222221, N
446688, 1240.8, V
446985, 1241.625, N
447177, 1242.1583333333333, V
447475, 1242.986111111111, N
447669, 1243.525, V
447968, 1244.3555555555556, N
448165, 1244.9027777777778, V
448464, 1245.7333333333333, N
448666, 1246.2944444444445, V
448953, 1247.0916666666667, N
449142, 1247.6166666666666, V
449400, 1248.3333333333333, N
449589, 1248.8583333333333, V
449918, 1249.7722222222221, N
450140, 1250.388888888889, V
450456, 1251.2666666666667, N
450639, 1251.775, V
450899, 1252.4972222222223, N
451104, 1253.0666666666666, V
451389, 1253.8583333333333, N
451577, 1254.3805555555555, V
451885, 1255.236111111111, N
452076, 1255.7666666666667, V
452383, 1256.6194444444445, N
452578, 1257.161111111111, V
452891, 1258.0305555555556, N
453097, 1258.6027777777779, V
453379, 1259.3861111111112, N
453545, 1259.8472222222222, V
453826, 1260.6277777777777, N
454032, 1261.2, V
454300, 1261.9444444444443, N
454510, 1262.5277777777778, V
454877, 1263.5472222222222, N
455064, 1264.0666666666666, V
455366, 1264.9055555555556, N
455547, 1265.4083333333333, V
455867, 1266.2972222222222, N
456072, 1266.8666666666666, V
456405, 1267.7916666666667, N
456605, 1268.3472222222222, V
456817, 1268.9361111111111, ~
456925, 1269.236111111111, N
457129, 1269.8027777777777, V
457424, 1270.6222222222223, N
457616, 1271.1555555555556, V
457935, 1272.0416666666667, N
458125, 1272.5694444444443, V
458406, 1273.35, N
458605, 1273.9027777777778, V
458994, 1274.9833333333333, N
459210, 1275.5833333333333, V
459548, 1276.5222222222221, N
459722, 1277.0055555555555, V
459990, 1277.75, N
460188, 1278.3, V
460342, 1278.7277777777779, V
460793, 1279.9805555555556, N
461003, 1280.5638888888889, V
461180, 1281.0555555555557, +
461357, 1281.5472222222222, N
461623, 1282.286111111111, N
461878, 1282.9944444444445, N
462148, 1283.7444444444445, N
462392, 1284.4222222222222, N
462593, 1284.9805555555556, V
462881, 1285.7805555555556, N
463090, 1286.361111111111, V
463396, 1287.2111111111112, N
463603, 1287.786111111111, V
463797, 1288.325, V
464136, 1289.2666666666667, N
464229, 1289.525, +
464323, 1289.786111111111, V
464588, 1290.5222222222221, N
464784, 1291.0666666666666, V
465100, 1291.9444444444443, N
465312, 1292.5333333333333, V
465628, 1293.411111111111, N
465816, 1293.9333333333334, V
466080, 1294.6666666666667, N
466278, 1295.2166666666667, V
466532, 1295.9222222222222, N
466727, 1296.463888888889, V
467029, 1297.3027777777777, N
467229, 1297.8583333333333, V
467528, 1298.6888888888889, N
467724, 1299.2333333333333, V
468020, 1300.0555555555557, N
468230, 1300.638888888889, V
468516, 1301.4333333333334, N
468708, 1301.9666666666667, V
468970, 1302.6944444444443, N
469162, 1303.2277777777779, V
469452, 1304.0333333333333, N
469678, 1304.661111111111, V
470008, 1305.5777777777778, N
470201, 1306.1138888888888, V
470485, 1306.9027777777778, N
470660, 1307.388888888889, V
470924, 1308.1222222222223, N
471133, 1308.7027777777778, V
471456, 1309.6, N
471678, 1310.2166666666667, V
471974, 1311.0388888888888, N
472164, 1311.5666666666666, V
472454, 1312.3722222222223, N
472649, 1312.9138888888888, V
472930, 1313.6944444444443, N
473125, 1314.236111111111, V
473411, 1315.0305555555556, N
473604, 1315.5666666666666, V
473906, 1316.4055555555556, N
474128, 1317.0222222222221, V
474420, 1317.8333333333333, N
474625, 1318.4027777777778, V
474934, 1319.2611111111112, N
475110, 1319.75, V
475272, 1320.2, +
475434, 1320.65, N
475707, 1321.4083333333333, N
475987, 1322.1861111111111, N
476276, 1322.9888888888888, N
476540, 1323.7222222222222, N
476741, 1324.2805555555556, A
477005, 1325.013888888889, N
477125, 1325.3472222222222, +
477245, 1325.6805555555557, V
477549, 1326.525, N
477757, 1327.1027777777779, V
478068, 1327.9666666666667, N
478273, 1328.536111111111, V
478555, 1329.3194444444443, N
478764, 1329.9, V
479117, 1330.8805555555555, N
479305, 1331.4027777777778, V
479612, 1332.2555555555555, N
479803, 1332.786111111111, V
479987, 1333.2972222222222, V
480410, 1334.4722222222222, N
480641, 1335.1138888888888, V
480985, 1336.0694444444443, N
481204, 1336.6777777777777, V
481475, 1337.4305555555557, N
481655, 1337.9305555555557, V
481975, 1338.8194444444443, N
482191, 1339.4194444444445, V
482484, 1340.2333333333333, N
482699, 1340.8305555555555, V
483086, 1341.9055555555556, N
483288, 1342.4666666666667, V
483631, 1343.4194444444445, N
483830, 1343.9722222222222, V
484111, 1344.7527777777777, N
484300, 1345.2777777777778, V
484605, 1346.125, N
484823, 1346.7305555555556, V
485147, 1347.6305555555555, N
485347, 1348.1861111111111, V
485627, 1348.963888888889, N
485800, 1349.4444444444443, V
486098, 1350.2722222222221, N
486302, 1350.838888888889, V
486532, 1351.4777777777779, ~
486628, 1351.7444444444445, N
486844, 1352.3444444444444, V
487122, 1353.1166666666666, N
487316, 1353.6555555555556, V
487629, 1354.525, N
487817, 1355.0472222222222, V
487968, 1355.4666666666667, +
488120, 1355.888888888889, N
488283, 1356.3416666666667, ~
488363, 1356.5638888888889, N
488580, 1357.1666666666667, A
488844, 1357.9, N
489100, 1358.611111111111, N
489379, 1359.3861111111112, N
489639, 1360.1083333333333, N
489891, 1360.8083333333334, N
489984, 1361.0666666666666, +
490078, 1361.3277777777778, V
490335, 1362.0416666666667, N
490551, 1362.6416666666667, V
490842, 1363.45, N
491051, 1364.0305555555556, V
491363, 1364.8972222222221, N
491562, 1365.45, V
491875, 1366.3194444444443, N
492060, 1366.8333333333333, V
492381, 1367.725, N
492579, 1368.275, V
492872, 1369.088888888889, N
493060, 1369.611111111111, V
493363, 1370.4527777777778, N
493573, 1371.036111111111, V
493848, 1371.8, N
494046, 1372.35, V
494346, 1373.1833333333334, N
494528, 1373.6888888888889, V
494777, 1374.3805555555555, N
494964, 1374.9, V
495285, 1375.7916666666667, N
495505, 1376.4027777777778, V
495813, 1377.2583333333334, N
496007, 1377.7972222222222, V
496274, 1378.5388888888888, N
496456, 1379.0444444444445, V
496723, 1379.786111111111, N
496926, 1380.35, V
497219, 1381.1638888888888, N
497424, 1381.7333333333333, V
497738, 1382.6055555555556, N
497940, 1383.1666666666667, V
498086, 1383.5722222222223, V
498473, 1384.6472222222221, N
498660, 1385.1666666666667, V
498950, 1385.9722222222222, N
499131, 1386.475, V
499399, 1387.2194444444444, N
499604, 1387.7888888888888, V
499920, 1388.6666666666667, N
500137, 1389.2694444444444, V
500445, 1390.125, N
500629, 1390.6361111111112, V
500903, 1391.3972222222221, N
501086, 1391.9055555555556, V
501343, 1392.6194444444445, N
501570, 1393.25, V
501931, 1394.2527777777777, N
502143, 1394.8416666666667, V
502433, 1395.6472222222221, N
502634, 1396.2055555555555, V
502890, 1396.9166666666667, N
503086, 1397.4611111111112, V
503383, 1398.286111111111, N
503575, 1398.8194444444443, V
503880, 1399.6666666666667, N
504073, 1400.2027777777778, V
504374, 1401.0388888888888, N
504603, 1401.675, V
504901, 1402.5027777777777, N
505096, 1403.0444444444445, V
505334, 1403.7055555555555, N
505520, 1404.2222222222222, V
505824, 1405.0666666666666, N
506025, 1405.625, V
506351, 1406.5305555555556, N
506580, 1407.1666666666667, V
506855, 1407.9305555555557, N
507040, 1408.4444444444443, V
507306, 1409.1833333333334, N
507505, 1409.736111111111, V
507685, 1410.236111111111, V
508040, 1411.2222222222222, N
508239, 1411.775, V
508535, 1412.5972222222222, N
508749, 1413.1916666666666, V
509009, 1413.9138888888888, N
509199, 1414.4416666666666, V
509493, 1415.2583333333334, V
509605, 1415.5694444444443, +
509717, 1415.8805555555555, N
509948, 1416.5222222222221, N
510163, 1417.1194444444445, N
510407, 1417.7972222222222, N
510686, 1418.5722222222223, N
510948, 1419.3, N
511200, 1420.0, N
511414, 1420.5944444444444, N
511629, 1421.1916666666666, N
511858, 1421.8277777777778, N
512050, 1422.361111111111, N
512135, 1422.5972222222222, +
512220, 1422.8333333333333, V
512573, 1423.8138888888889, N
512771, 1424.3638888888888, V
513066, 1425.1833333333334, N
513253, 1425.7027777777778, V
513524, 1426.4555555555555, N
513735, 1427.0416666666667, V
514022, 1427.838888888889, N
514214, 1428.3722222222223, V
514481, 1429.1138888888888, N
514676, 1429.6555555555556, V
514969, 1430.4694444444444, N
515172, 1431.0333333333333, V
515473, 1431.8694444444445, N
515682, 1432.45, V
515935, 1433.1527777777778, N
516110, 1433.638888888889, V
516368, 1434.3555555555556, N
516578, 1434.9388888888889, V
516894, 1435.8166666666666, N
517103, 1436.3972222222221, V
517404, 1437.2333333333333, N
517610, 1437.8055555555557, V
517887, 1438.575, N
518060, 1439.0555555555557, V
518342, 1439.838888888889, N
518547, 1440.4083333333333, V
518839, 1441.2194444444444, N
519047, 1441.7972222222222, V
519341, 1442.6138888888888, N
519555, 1443.2083333333333, V
519868, 1444.0777777777778, N
520063, 1444.6194444444445, V
520347, 1445.4083333333333, N
520527, 1445.9083333333333, V
520786, 1446.6277777777777, N
520988, 1447.1888888888889, V
521299, 1448.0527777777777, N
521515, 1448.6527777777778, V
521848, 1449.5777777777778, N
522036, 1450.1, V
522311, 1450.8638888888888, N
522494, 1451.3722222222223, V
522792, 1452.2, N
522995, 1452.763888888889, V
523310, 1453.638888888889, N
523515, 1454.2083333333333, V
523816, 1455.0444444444445, N
524020, 1455.611111111111, V
524289, 1456.3583333333333, N
524487, 1456.9083333333333, V
524795, 1457.763888888889, N
524976, 1458.2666666666667, V
525264, 1459.0666666666666, N
525455, 1459.5972222222222, V
525766, 1460.4611111111112, N
525996, 1461.1, V
526298, 1461.9388888888889, N
526487, 1462.463888888889, V
526740, 1463.1666666666667, N
526924, 1463.6777777777777, V
527194, 1464.4277777777777, N
527396, 1464.9888888888888, V
527694, 1465.8166666666666, N
527918, 1466.4388888888889, V
528215, 1467.263888888889, N
528398, 1467.7722222222221, V
528677, 1468.5472222222222, N
528887, 1469.1305555555555, V
529157, 1469.8805555555555, N
529353, 1470.425, V
529618, 1471.161111111111, N
529824, 1471.7333333333333, V
530110, 1472.5277777777778, N
530298, 1473.05, V
530595, 1473.875, N
530806, 1474.4611111111112, V
531067, 1475.1861111111111, N
531250, 1475.6944444444443, V
531497, 1476.3805555555555, N
531693, 1476.925, V
532004, 1477.7888888888888, N
532212, 1478.3666666666666, V
532524, 1479.2333333333333, N
532710, 1479.75, V
532905, 1480.2916666666667, V
533050, 1480.6944444444443, +
533195, 1481.0972222222222, N
533426, 1481.7388888888888, N
533623, 1482.286111111111, V
533912, 1483.088888888889, N
534156, 1483.7666666666667, N
534389, 1484.4138888888888, N
534625, 1485.0694444444443, N
534894, 1485.8166666666666, N
535149, 1486.525, N
535385, 1487.1805555555557, N
535600, 1487.7777777777778, N
535831, 1488.4194444444445, N
536076, 1489.1, N
536316, 1489.7666666666667, N
536584, 1490.5111111111112, N
536857, 1491.2694444444444, N
537060, 1491.8333333333333, A
537318, 1492.55, N
537499, 1493.0527777777777, V
537809, 1493.9138888888888, N
537912, 1494.2, +
538010, 1494.4722222222222, V
538197, 1494.9916666666666, V
538432, 1495.6444444444444, V
538708, 1496.411111111111, +
538840, 1496.7777777777778, N
539024, 1497.2888888888888, V
539326, 1498.1277777777777, N
539554, 1498.7611111111112, N
539817, 1499.4916666666666, N
539915, 1499.763888888889, +
540013, 1500.036111111111, V
540292, 1500.8111111111111, N
540472, 1501.3111111111111, V
540779, 1502.1638888888888, N
541004, 1502.7888888888888, V
541325, 1503.6805555555557, N
541523, 1504.2305555555556, V
541797, 1504.9916666666666, N
541977, 1505.4916666666666, V
542264, 1506.2888888888888, N
542442, 1506.7833333333333, V
542605, 1507.236111111111, +
542769, 1507.6916666666666, N
543069, 1508.525, N
543337, 1509.2694444444444, N
543585, 1509.9583333333333, N
543795, 1510.5416666666667, A
544063, 1511.286111111111, N
544337, 1512.0472222222222, N
544601, 1512.7805555555556, N
544843, 1513.4527777777778, N
545105, 1514.1805555555557, N
545224, 1514.5111111111112, +
545344, 1514.8444444444444, V
545654, 1515.7055555555555, N
545854, 1516.2611111111112, V
546235, 1517.3194444444443, N
546421, 1517.8361111111112, V
546577, 1518.2694444444444, +
546734, 1518.7055555555555, N
547019, 1519.4972222222223, N
547316, 1520.3222222222223, N
547593, 1521.0916666666667, N
547845, 1521.7916666666667, N
548093, 1522.4805555555556, N
548298, 1523.05, A
548531, 1523.6972222222223, A
548877, 1524.6583333333333, N
549126, 1525.35, V
549292, 1525.8111111111111, V
549742, 1527.0611111111111, N
549925, 1527.5694444444443, V
550323, 1528.675, N
550591, 1529.4194444444445, N
550751, 1529.8638888888888, V
551103, 1530.8416666666667, N
551298, 1531.3833333333334, V
551664, 1532.4, N
551953, 1533.2027777777778, N
552174, 1533.8166666666666, V
552471, 1534.6416666666667, N
552654, 1535.15, V
552931, 1535.9194444444445, N
553135, 1536.486111111111, V
553328, 1537.0222222222221, V
553733, 1538.1472222222221, N
553830, 1538.4166666666667, +
553927, 1538.6861111111111, V
554238, 1539.55, N
554445, 1540.125, V
554709, 1540.8583333333333, N
554898, 1541.3833333333334, V
555244, 1542.3444444444444, N
555427, 1542.8527777777779, V
555739, 1543.7194444444444, N
555949, 1544.3027777777777, V
556309, 1545.3027777777777, N
556522, 1545.8944444444444, V
556843, 1546.786111111111, N
557014, 1547.2611111111112, V
557303, 1548.0638888888889, N
557505, 1548.625, V
557855, 1549.5972222222222, N
558065, 1550.1805555555557, V
558246, 1550.6833333333334, +
558428, 1551.1888888888889, N
558673, 1551.8694444444445, N
558759, 1552.1083333333333, +
558845, 1552.3472222222222, V
559178, 1553.2722222222221, N
559391, 1553.8638888888888, V
559696, 1554.7111111111112, N
559903, 1555.286111111111, V
560064, 1555.7333333333333, +
560225, 1556.1805555555557, N
560495, 1556.9305555555557, N
560597, 1557.213888888889, +
560700, 1557.5, V
561075, 1558.5416666666667, N
561279, 1559.1083333333333, V
561636, 1560.1, N
561819, 1560.6083333333333, V
562001, 1561.1138888888888, +
562184, 1561.6222222222223, N
562526, 1562.5722222222223, N
562835, 1563.4305555555557, N
563115, 1564.2083333333333, N
563376, 1564.9333333333334, N
563646, 1565.6833333333334, N
563902, 1566.3944444444444, N
564174, 1567.15, N
564476, 1567.9888888888888, N
564765, 1568.7916666666667, N
565028, 1569.5222222222221, N
565290, 1570.25, N
565517, 1570.8805555555555, A
565874, 1571.8722222222223, N
565973, 1572.1472222222221, +
566073, 1572.425, V
566428, 1573.411111111111, N
566636, 1573.9888888888888, V
567028, 1575.0777777777778, N
567264, 1575.7333333333333, V
567602, 1576.6722222222222, N
567819, 1577.275, V
567948, 1577.6333333333334, V
568394, 1578.8722222222223, N
568631, 1579.5305555555556, V
568957, 1580.4361111111111, V
569104, 1580.8444444444444, +
569251, 1581.2527777777777, N
569505, 1581.9583333333333, N
569758, 1582.661111111111, N
569992, 1583.3111111111111, N
570239, 1583.9972222222223, N
570499, 1584.7194444444444, N
570754, 1585.4277777777777, N
570860, 1585.7222222222222, +
570967, 1586.0194444444444, V
571238, 1586.7722222222221, N
571449, 1587.3583333333333, V
571788, 1588.3, N
571979, 1588.8305555555555, V
572119, 1589.2194444444444, +
572260, 1589.611111111111, N
572482, 1590.2277777777779, N
572744, 1590.9555555555555, N
572845, 1591.236111111111, +
572946, 1591.5166666666667, V
573266, 1592.4055555555556, N
573488, 1593.0222222222221, V
573867, 1594.075, N
574040, 1594.5555555555557, V
574382, 1595.5055555555555, N
574581, 1596.0583333333334, V
574762, 1596.5611111111111, +
574943, 1597.0638888888889, N
575224, 1597.8444444444444, N
575497, 1598.6027777777779, N
575785, 1599.4027777777778, N
576035, 1600.0972222222222, N
576289, 1600.8027777777777, N
576548, 1601.5222222222221, N
576783, 1602.175, N
577016, 1602.8222222222223, N
577228, 1603.411111111111, A
577535, 1604.263888888889, N
577659, 1604.6083333333333, +
577784, 1604.9555555555555, V
578211, 1606.1416666666667, N
578387, 1606.6305555555555, V
578739, 1607.6083333333333, N
578917, 1608.1027777777779, V
579264, 1609.0666666666666, N
579521, 1609.7805555555556, V
579678, 1610.2166666666667, +
579835, 1610.6527777777778, N
580104, 1611.4, N
580356, 1612.1, N
580627, 1612.8527777777779, N
580854, 1613.4833333333333, N
581132, 1614.2555555555555, N
581405, 1615.013888888889, N
581679, 1615.775, N
581957, 1616.5472222222222, N
582245, 1617.3472222222222, N
582531, 1618.1416666666667, N
582734, 1618.7055555555555, A
583082, 1619.6722222222222, N
583259, 1620.1638888888888, V
583664, 1621.2888888888888, N
583882, 1621.8944444444444, V
584303, 1623.0638888888889, N
584583, 1623.8416666666667, N
584766, 1624.35, V
585105, 1625.2916666666667, N
585325, 1625.9027777777778, V
585677, 1626.8805555555555, N
585968, 1627.6888888888889, N
586252, 1628.4777777777779, N
586525, 1629.236111111111, N
586765, 1629.9027777777778, V
586959, 1630.4416666666666, V
587348, 1631.5222222222221, N
587431, 1631.7527777777777, +
587515, 1631.986111111111, V
587837, 1632.8805555555555, N
588036, 1633.4333333333334, V
588384, 1634.4, N
588607, 1635.0194444444444, V
588761, 1635.4472222222223, +
588916, 1635.8777777777777, N
589183, 1636.6194444444445, N
589410, 1637.25, N
589659, 1637.9416666666666, N
589901, 1638.6138888888888, N
590185, 1639.4027777777778, N
590457, 1640.1583333333333, N
590722, 1640.8944444444444, N
590946, 1641.5166666666667, A
591296, 1642.4888888888888, N
591397, 1642.7694444444444, +
591498, 1643.05, V
591857, 1644.0472222222222, N
592038, 1644.55, V
592396, 1645.5444444444445, N
592600, 1646.111111111111, V
592802, 1646.6722222222222, +
593004, 1647.2333333333333, N
593289, 1648.025, N
593542, 1648.7277777777779, N
593762, 1649.338888888889, N
594013, 1650.036111111111, N
594247, 1650.6861111111111, N
594510, 1651.4166666666667, N
594797, 1652.213888888889, N
595040, 1652.888888888889, N
595324, 1653.6777777777777, N
595554, 1654.3166666666666, N
595796, 1654.9888888888888, N
596061, 1655.725, N
596307, 1656.4083333333333, N
596532, 1657.0333333333333, A
596881, 1658.0027777777777, N
596989, 1658.3027777777777, +
597097, 1658.6027777777779, V
597479, 1659.6638888888888, N
597678, 1660.2166666666667, V
598039, 1661.2194444444444, N
598256, 1661.8222222222223, V
598407, 1662.2416666666666, +
598558, 1662.661111111111, N
598863, 1663.5083333333334, N
599192, 1664.4222222222222, N
599491, 1665.2527777777777, N
599602, 1665.5611111111111, +
599714, 1665.8722222222223, V
599992, 1666.6444444444444, N
600193, 1667.2027777777778, V
600452, 1667.9222222222222, N
600653, 1668.4805555555556, V
601063, 1669.6194444444445, N
601266, 1670.1833333333334, V
601466, 1670.7388888888888, +
601667, 1671.2972222222222, N
601954, 1672.0944444444444, N
602239, 1672.8861111111112, N
602450, 1673.4722222222222, A
602726, 1674.2388888888888, N
602931, 1674.8083333333334, V
603345, 1675.9583333333333, N
603544, 1676.5111111111112, V
603938, 1677.6055555555556, N
604224, 1678.4, N
604400, 1678.888888888889, V
604575, 1679.375, V
604960, 1680.4444444444443, N
605186, 1681.0722222222223, V
605559, 1682.1083333333333, N
605873, 1682.9805555555556, N
606138, 1683.7166666666667, N
606362, 1684.338888888889, N
606654, 1685.15, N
606860, 1685.7222222222222, V
607288, 1686.911111111111, N
607486, 1687.4611111111112, V
607873, 1688.536111111111, N
608176, 1689.3777777777777, N
608472, 1690.2, N
608731, 1690.9194444444445, N
608969, 1691.5805555555555, N
609168, 1692.1333333333334, A
609510, 1693.0833333333333, N
609708, 1693.6333333333334, V
610114, 1694.7611111111112, N
610321, 1695.3361111111112, V
610684, 1696.3444444444444, N
610943, 1697.0638888888889, N
611223, 1697.8416666666667, N
611507, 1698.6305555555555, N
611799, 1699.4416666666666, N
612078, 1700.2166666666667, N
612363, 1701.0083333333334, N
612636, 1701.7666666666667, N
612903, 1702.5083333333334, N
613161, 1703.225, N
613403, 1703.8972222222221, N
613650, 1704.5833333333333, N
613889, 1705.2472222222223, N
614114, 1705.8722222222223, N
614421, 1706.725, N
614650, 1707.361111111111, V
615031, 1708.4194444444445, N
615212, 1708.9222222222222, V
615545, 1709.8472222222222, N
615798, 1710.55, N
616036, 1711.2111111111112, V
616351, 1712.0861111111112, N
616631, 1712.8638888888888, N
616815, 1713.375, V
617127, 1714.2416666666666, N
617361, 1714.8916666666667, V
617646, 1715.6833333333334, N
617906, 1716.4055555555556, N
618102, 1716.95, V
618253, 1717.3694444444445, V
618631, 1718.4194444444445, N
618850, 1719.0277777777778, V
619181, 1719.9472222222223, N
619438, 1720.661111111111, N
619674, 1721.3166666666666, N
619886, 1721.9055555555556, N
620138, 1722.6055555555556, N
620421, 1723.3916666666667, N
620693, 1724.1472222222221, N
620981, 1724.9472222222223, N
621196, 1725.5444444444445, A
621474, 1726.3166666666666, N
621730, 1727.0277777777778, N
621993, 1727.7583333333334, N
622258, 1728.4944444444445, N
622522, 1729.2277777777779, N
622748, 1729.8555555555556, N
623102, 1730.838888888889, N
623314, 1731.4277777777777, V
623708, 1732.5222222222221, N
623900, 1733.0555555555557, V
624236, 1733.9888888888888, N
624501, 1734.725, N
624776, 1735.4888888888888, N
625017, 1736.1583333333333, N
625359, 1737.1083333333333, N
625468, 1737.411111111111, +
625578, 1737.7166666666667, V
625940, 1738.7222222222222, N
626111, 1739.1972222222223, V
626472, 1740.2, N
626685, 1740.7916666666667, V
626875, 1741.3194444444443, +
627066, 1741.85, N
627352, 1742.6444444444444, N
627626, 1743.4055555555556, N
627857, 1744.0472222222222, A
628158, 1744.8833333333334, N
628264, 1745.1777777777777, +
628371, 1745.475, V
628678, 1746.3277777777778, N
628879, 1746.8861111111112, V
629170, 1747.6944444444443, N
629380, 1748.2777777777778, V
629775, 1749.375, N
629977, 1749.9361111111111, V
630287, 1750.7972222222222, N
630469, 1751.3027777777777, V
630762, 1752.1166666666666, N
630945, 1752.625, V
631107, 1753.075, +
631269, 1753.525, N
631558, 1754.3277777777778, N
631804, 1755.0111111111112, N
632069, 1755.7472222222223, N
632305, 1756.4027777777778, N
632555, 1757.0972222222222, N
632816, 1757.8222222222223, N
633052, 1758.4777777777779, N
633314, 1759.2055555555555, N
633585, 1759.9583333333333, N
633871, 1760.7527777777777, N
634140, 1761.5, N
634370, 1762.138888888889, A
634733, 1763.1472222222221, N
634923, 1763.675, V
635279, 1764.6638888888888, N
635584, 1765.5111111111112, N
635907, 1766.4083333333333, N
636211, 1767.2527777777777, N
636479, 1767.9972222222223, N
636590, 1768.3055555555557, +
636702, 1768.6166666666666, V
636995, 1769.4305555555557, N
637191, 1769.975, V
637549, 1770.9694444444444, N
637753, 1771.536111111111, V
638125, 1772.5694444444443, N
638346, 1773.1833333333334, V
638511, 1773.6416666666667, +
638677, 1774.1027777777779, N
638952, 1774.8666666666666, N
639202, 1775.5611111111111, N
639434, 1776.2055555555555, N
639679, 1776.8861111111112, N
639921, 1777.5583333333334, N
640213, 1778.3694444444445, N
640337, 1778.713888888889, +
640461, 1779.0583333333334, V
640806, 1780.0166666666667, N
640995, 1780.5416666666667, V
641291, 1781.3638888888888, N
641474, 1781.8722222222223, V
641835, 1782.875, N
642077, 1783.5472222222222, V
642249, 1784.025, +
642421, 1784.5027777777777, N
642690, 1785.25, N
642809, 1785.5805555555555, ~
642945, 1785.9583333333333, N
643198, 1786.661111111111, N
643456, 1787.3777777777777, N
643711, 1788.0861111111112, N
643959, 1788.775, N
644208, 1789.4666666666667, N
644466, 1790.1833333333334, N
644744, 1790.9555555555555, N
645027, 1791.7416666666666, N
645116, 1791.9888888888888, ~
645277, 1792.4361111111111, N
645522, 1793.1166666666666, N
645743, 1793.7305555555556, N
645988, 1794.411111111111, N
646206, 1795.0166666666667, V
646510, 1795.861111111111, N
646799, 1796.6638888888888, N
647074, 1797.4277777777777, N
647299, 1798.0527777777777, V
647545, 1798.736111111111, N
647726, 1799.2388888888888, V
648089, 1800.2472222222223, N
648356, 1800.9888888888888, N
648629, 1801.7472222222223, N
648899, 1802.4972222222223, N
649161, 1803.225, N
649242, 1803.45, ~
649408, 1803.911111111111, N
649664, 1804.6222222222223, N
649927, 1805.3527777777779, N
