60, 0.16666666666666666, +
159, 0.44166666666666665, N
415, 1.1527777777777777, N
686, 1.9055555555555554, N
905, 2.513888888888889, N
1189, 3.3027777777777776, N
1422, 3.95, N
1621, 4.502777777777778, N
1965, 5.458333333333333, N
2236, 6.211111111111111, N
2495, 6.930555555555555, N
2721, 7.558333333333334, N
2955, 8.208333333333334, N
3197, 8.880555555555556, N
3470, 9.63888888888889, N
3798, 10.55, N
4109, 11.41388888888889, N
4353, 12.091666666666667, N
4591, 12.752777777777778, N
4847, 13.463888888888889, N
4989, 13.858333333333333, N
5220, 14.5, N
5477, 15.213888888888889, N
5688, 15.8, N
5919, 16.441666666666666, N
6102, 16.95, N
6391, 17.752777777777776, N
6636, 18.433333333333334, N
6836, 18.988888888888887, N
7069, 19.636111111111113, N
7323, 20.341666666666665, N
7614, 21.15, N
7819, 21.719444444444445, N
8071, 22.419444444444444, N
8303, 23.06388888888889, N
8514, 23.65, N
8667, 24.075, N
8922, 24.783333333333335, N
9116, 25.322222222222223, N
9349, 25.969444444444445, N
9642, 26.783333333333335, N
10008, 27.8, N
10267, 28.519444444444446, N
10521, 29.225, N
10771, 29.919444444444444, N
11043, 30.675, N
11300, 31.38888888888889, N
11474, 31.872222222222224, N
11800, 32.77777777777778, N
12007, 33.352777777777774, N
12252, 34.03333333333333, N
12454, 34.59444444444444, N
12690, 35.25, N
12928, 35.91111111111111, N
13222, 36.727777777777774, N
13550, 37.638888888888886, N
13800, 38.333333333333336, N
14021, 38.94722222222222, N
14349, 39.858333333333334, N
14615, 40.59722222222222, N
14866, 41.294444444444444, N
15014, 41.705555555555556, N
15241, 42.33611111111111, N
15470, 42.97222222222222, N
15692, 43.58888888888889, N
15895, 44.15277777777778, N
16151, 44.86388888888889, N
16407, 45.575, N
16569, 46.025, N
16813, 46.702777777777776, N
17042, 47.33888888888889, N
17271, 47.975, N
17425, 48.40277777777778, N
17553, 48.75833333333333, a
17775, 49.375, N
17958, 49.88333333333333, N
18261, 50.725, N
18428, 51.18888888888889, N
18681, 51.891666666666666, N
18924, 52.56666666666667, N
19075, 52.986111111111114, N
19300, 53.611111111111114, N
19591, 54.419444444444444, N
19825, 55.06944444444444, N
20050, 55.69444444444444, N
20271, 56.30833333333333, N
20584, 57.17777777777778, N
20907, 58.075, N
21167, 58.797222222222224, N
21406, 59.46111111111111, N
21561, 59.891666666666666, N
21744, 60.4, N
21963, 61.00833333333333, N
22296, 61.93333333333333, N
22597, 62.769444444444446, N
22754, 63.205555555555556, N
22914, 63.65, N
23153, 64.31388888888888, N
23502, 65.28333333333333, N
23658, 65.71666666666667, N
23872, 66.31111111111112, N
24191, 67.19722222222222, N
24396, 67.76666666666667, N
24641, 68.44722222222222, N
24871, 69.08611111111111, N
25118, 69.77222222222223, N
25360, 70.44444444444444, N
25623, 71.175, N
25857, 71.825, N
26138, 72.60555555555555, N
26362, 73.22777777777777, N
26610, 73.91666666666667, N
26803, 74.45277777777778, N
27042, 75.11666666666666, N
27257, 75.71388888888889, N
27443, 76.23055555555555, N
27598, 76.66111111111111, N
27878, 77.43888888888888, N
28128, 78.13333333333334, N
28377, 78.825, N
28617, 79.49166666666666, N
28915, 80.31944444444444, N
29153, 80.98055555555555, N
29443, 81.78611111111111, N
29712, 82.53333333333333, N
29939, 83.16388888888889, N
30171, 83.80833333333334, N
30314, 84.20555555555555, N
30577, 84.93611111111112, N
30780, 85.5, N
31022, 86.17222222222222, N
31305, 86.95833333333333, N
31720, 88.11111111111111, N
32030, 88.97222222222223, N
32257, 89.60277777777777, N
32429, 90.08055555555555, N
32628, 90.63333333333334, N
32861, 91.28055555555555, N
33177, 92.15833333333333, N
33362, 92.67222222222222, N
33648, 93.46666666666667, N
33894, 94.15, N
34202, 95.00555555555556, N
34351, 95.41944444444445, N
34624, 96.17777777777778, N
34871, 96.8638888888889, N
35019, 97.275, N
35221, 97.83611111111111, N
35375, 98.26388888888889, N
35622, 98.95, N
35921, 99.78055555555555, N
36255, 100.70833333333333, N
36489, 101.35833333333333, N
36684, 101.9, N
37033, 102.86944444444444, N
37199, 103.33055555555555, N
37340, 103.72222222222223, N
37584, 104.4, N
37824, 105.06666666666666, N
38074, 105.7611111111111, N
38318, 106.43888888888888, N
38583, 107.175, N
38865, 107.95833333333333, N
39162, 108.78333333333333, N
39450, 109.58333333333333, N
39783, 110.50833333333334, N
40080, 111.33333333333333, N
40305, 111.95833333333333, N
40607, 112.79722222222222, N
40811, 113.3638888888889, N
41040, 114.0, N
41260, 114.61111111111111, N
41522, 115.33888888888889, N
41695, 115.81944444444444, N
41925, 116.45833333333333, N
42168, 117.13333333333334, N
42415, 117.81944444444444, N
42564, 118.23333333333333, N
42700, 118.61111111111111, N
43022, 119.50555555555556, N
43242, 120.11666666666666, N
43473, 120.75833333333334, N
43616, 121.15555555555555, N
43934, 122.03888888888889, N
44333, 123.14722222222223, N
44649, 124.025, N
44920, 124.77777777777777, N
45201, 125.55833333333334, N
45408, 126.13333333333334, N
45594, 126.65, N
45770, 127.13888888888889, N
45986, 127.7388888888889, N
46198, 128.32777777777778, N
46460, 129.05555555555554, N
46752, 129.86666666666667, N
47002, 130.5611111111111, N
47284, 131.34444444444443, N
47500, 131.94444444444446, N
47749, 132.63611111111112, N
47953, 133.20277777777778, N
48197, 133.88055555555556, N
48416, 134.48888888888888, N
48665, 135.18055555555554, N
48918, 135.88333333333333, N
49137, 136.49166666666667, N
49376, 137.15555555555557, N
49559, 137.6638888888889, N
49705, 138.06944444444446, N
50081, 139.11388888888888, N
50332, 139.8111111111111, N
50640, 140.66666666666666, N
50929, 141.46944444444443, N
51250, 142.36111111111111, N
51501, 143.05833333333334, N
51685, 143.56944444444446, N
51913, 144.20277777777778, N
52141, 144.8361111111111, N
52405, 145.56944444444446, N
52666, 146.29444444444445, N
52911, 146.975, N
53237, 147.88055555555556, N
53451, 148.475, N
53620, 148.94444444444446, N
53846, 149.57222222222222, N
54085, 150.23611111111111, N
54409, 151.13611111111112, N
54658, 151.82777777777778, N
54885, 152.45833333333334, N
55111, 153.0861111111111, N
55261, 153.50277777777777, N
55519, 154.21944444444443, N
55680, 154.66666666666666, N
56045, 155.68055555555554, N
56246, 156.23888888888888, N
56447, 156.79722222222222, N
56690, 157.47222222222223, N
56952, 158.2, N
57163, 158.7861111111111, N
57321, 159.225, N
57732, 160.36666666666667, N
58034, 161.20555555555555, N
58261, 161.8361111111111, N
58447, 162.3527777777778, N
58578, 162.71666666666667, N
58809, 163.35833333333332, N
59083, 164.11944444444444, N
59332, 164.8111111111111, N
59593, 165.5361111111111, N
59848, 166.24444444444444, N
60079, 166.88611111111112, N
60338, 167.60555555555555, N
60587, 168.29722222222222, N
60896, 169.15555555555557, N
61145, 169.84722222222223, N
61395, 170.54166666666666, N
61628, 171.1888888888889, N
61858, 171.82777777777778, N
62073, 172.425, N
62314, 173.09444444444443, N
62465, 173.51388888888889, N
62702, 174.17222222222222, N
62922, 174.78333333333333, N
63166, 175.4611111111111, N
63346, 175.9611111111111, N
63616, 176.7111111111111, N
63829, 177.30277777777778, N
64084, 178.01111111111112, N
64308, 178.63333333333333, N
64521, 179.225, N
64689, 179.69166666666666, N
64927, 180.3527777777778, N
65120, 180.88888888888889, N
65335, 181.48611111111111, N
65634, 182.31666666666666, N
65949, 183.19166666666666, N
66197, 183.88055555555556, N
66634, 185.09444444444443, N
66808, 185.57777777777778, N
67039, 186.21944444444443, N
67252, 186.8111111111111, N
67523, 187.5638888888889, N
67772, 188.25555555555556, N
68008, 188.9111111111111, N
68298, 189.71666666666667, N
68571, 190.475, N
68946, 191.51666666666668, N
69177, 192.15833333333333, N
69477, 192.99166666666667, N
69654, 193.48333333333332, N
69888, 194.13333333333333, N
70171, 194.91944444444445, N
70392, 195.53333333333333, N
70536, 195.93333333333334, N
70670, 196.30555555555554, N
71068, 197.4111111111111, N
71279, 197.99722222222223, N
71479, 198.55277777777778, N
71816, 199.48888888888888, N
72051, 200.14166666666668, N
72203, 200.5638888888889, N
72484, 201.34444444444443, N
72728, 202.0222222222222, N
72967, 202.6861111111111, N
73253, 203.48055555555555, N
73526, 204.23888888888888, N
73722, 204.78333333333333, N
74049, 205.69166666666666, N
74479, 206.88611111111112, N
74702, 207.50555555555556, N
74975, 208.26388888888889, N
75202, 208.89444444444445, N
75427, 209.51944444444445, N
75711, 210.30833333333334, N
75941, 210.94722222222222, N
76076, 211.32222222222222, a
76218, 211.71666666666667, N
76437, 212.325, N
76739, 213.1638888888889, N
76969, 213.80277777777778, N
77327, 214.79722222222222, N
77516, 215.32222222222222, N
77733, 215.925, N
77948, 216.5222222222222, N
78099, 216.94166666666666, N
78339, 217.60833333333332, N
78493, 218.0361111111111, N
78716, 218.65555555555557, N
78952, 219.3111111111111, N
79186, 219.9611111111111, N
79429, 220.63611111111112, N
79661, 221.28055555555557, N
79879, 221.88611111111112, N
80247, 222.90833333333333, N
80554, 223.76111111111112, N
80841, 224.55833333333334, N
81116, 225.32222222222222, N
81390, 226.08333333333334, N
81678, 226.88333333333333, N
81928, 227.57777777777778, N
82166, 228.23888888888888, N
82417, 228.9361111111111, N
82736, 229.82222222222222, N
83035, 230.65277777777777, N
83308, 231.4111111111111, N
83616, 232.26666666666668, N
83847, 232.90833333333333, N
84154, 233.76111111111112, N
84452, 234.5888888888889, N
84722, 235.3388888888889, N
84927, 235.90833333333333, N
85118, 236.4388888888889, N
85325, 237.01388888888889, N
85578, 237.71666666666667, N
85840, 238.44444444444446, N
86003, 238.8972222222222, N
86219, 239.49722222222223, N
86389, 239.96944444444443, N
86614, 240.59444444444443, N
86865, 241.29166666666666, N
87110, 241.97222222222223, N
87358, 242.6611111111111, N
87543, 243.175, N
87766, 243.79444444444445, N
87992, 244.42222222222222, N
88205, 245.01388888888889, N
88361, 245.44722222222222, N
88587, 246.075, N
88727, 246.4638888888889, N
89008, 247.24444444444444, N
89272, 247.9777777777778, N
89497, 248.6027777777778, N
89772, 249.36666666666667, N
90050, 250.13888888888889, N
90337, 250.9361111111111, N
90610, 251.69444444444446, N
90841, 252.3361111111111, N
91046, 252.90555555555557, N
91283, 253.5638888888889, N
91519, 254.21944444444443, N
91754, 254.87222222222223, N
92021, 255.61388888888888, N
92393, 256.64722222222224, N
92591, 257.1972222222222, N
92825, 257.84722222222223, N
93049, 258.46944444444443, N
93239, 258.9972222222222, N
93376, 259.3777777777778, N
93605, 260.0138888888889, N
93959, 260.9972222222222, N
94150, 261.52777777777777, N
94392, 262.2, N
94645, 262.90277777777777, N
94874, 263.5388888888889, N
95112, 264.2, N
95248, 264.5777777777778, N
95600, 265.55555555555554, N
95835, 266.2083333333333, N
96165, 267.125, N
96468, 267.96666666666664, N
96744, 268.73333333333335, N
96904, 269.1777777777778, N
97120, 269.77777777777777, N
97351, 270.4194444444444, N
97567, 271.01944444444445, N
97805, 271.68055555555554, N
98213, 272.81388888888887, N
98518, 273.6611111111111, N
98724, 274.23333333333335, N
99013, 275.0361111111111, N
99341, 275.9472222222222, N
99612, 276.7, N
99897, 277.4916666666667, N
100144, 278.1777777777778, N
100415, 278.93055555555554, N
100735, 279.81944444444446, N
101067, 280.7416666666667, N
101324, 281.4555555555556, N
101520, 282.0, N
101754, 282.65, N
102047, 283.4638888888889, N
102307, 284.18611111111113, N
102524, 284.7888888888889, N
102665, 285.18055555555554, N
102907, 285.85277777777776, N
103189, 286.6361111111111, N
103437, 287.325, N
103660, 287.94444444444446, N
103879, 288.5527777777778, N
104113, 289.2027777777778, N
104336, 289.8222222222222, N
104597, 290.5472222222222, N
104957, 291.5472222222222, N
105271, 292.4194444444444, N
105486, 293.01666666666665, N
105826, 293.9611111111111, N
106048, 294.5777777777778, N
106183, 294.9527777777778, N
106433, 295.64722222222224, N
106636, 296.2111111111111, N
106947, 297.075, N
107299, 298.0527777777778, N
107644, 299.0111111111111, N
107974, 299.9277777777778, N
108172, 300.47777777777776, N
108444, 301.23333333333335, N
108686, 301.90555555555557, N
108938, 302.60555555555555, N
109184, 303.2888888888889, N
109461, 304.05833333333334, N
109612, 304.47777777777776, a
109832, 305.0888888888889, N
110139, 305.94166666666666, N
110323, 306.4527777777778, N
110559, 307.10833333333335, N
110781, 307.725, N
111100, 308.6111111111111, N
111380, 309.3888888888889, N
111633, 310.09166666666664, N
111893, 310.81388888888887, N
112122, 311.45, N
112444, 312.34444444444443, N
112679, 312.9972222222222, N
113109, 314.19166666666666, N
113368, 314.9111111111111, N
113522, 315.3388888888889, N
113774, 316.0388888888889, N
114076, 316.8777777777778, N
114390, 317.75, N
114687, 318.575, N
114900, 319.1666666666667, N
115122, 319.78333333333336, N
115396, 320.5444444444444, N
115578, 321.05, N
115846, 321.7944444444444, N
116059, 322.3861111111111, N
116294, 323.0388888888889, N
116531, 323.6972222222222, N
116703, 324.175, N
116890, 324.69444444444446, N
117149, 325.4138888888889, N
117306, 325.85, N
117477, 326.325, N
117901, 327.5027777777778, N
118142, 328.1722222222222, N
118302, 328.6166666666667, N
118544, 329.2888888888889, N
118729, 329.8027777777778, N
118973, 330.48055555555555, N
119274, 331.31666666666666, N
119526, 332.01666666666665, N
119874, 332.98333333333335, N
120426, 334.51666666666665, N
120672, 335.2, N
120918, 335.8833333333333, N
121142, 336.50555555555553, N
121434, 337.31666666666666, N
121694, 338.0388888888889, N
121927, 338.68611111111113, N
122203, 339.4527777777778, N
122427, 340.075, N
122634, 340.65, N
122845, 341.2361111111111, N
123242, 342.3388888888889, N
123550, 343.19444444444446, N
123795, 343.875, N
124038, 344.55, N
124258, 345.1611111111111, N
124504, 345.84444444444443, N
124737, 346.4916666666667, N
124883, 346.89722222222224, N
125146, 347.6277777777778, N
125417, 348.38055555555553, N
125777, 349.38055555555553, N
126012, 350.03333333333336, N
126208, 350.5777777777778, N
126471, 351.30833333333334, N
126765, 352.125, N
126966, 352.68333333333334, N
127242, 353.45, N
127459, 354.0527777777778, N
127672, 354.64444444444445, N
127960, 355.44444444444446, N
128182, 356.06111111111113, N
128407, 356.68611111111113, N
128551, 357.0861111111111, N
128793, 357.7583333333333, N
129060, 358.5, N
129253, 359.0361111111111, N
129523, 359.7861111111111, N
129757, 360.43611111111113, N
130092, 361.3666666666667, N
130406, 362.2388888888889, N
130577, 362.7138888888889, N
130830, 363.4166666666667, N
130989, 363.85833333333335, N
131218, 364.49444444444447, N
131530, 365.3611111111111, N
131793, 366.09166666666664, N
132005, 366.68055555555554, N
132238, 367.3277777777778, N
132558, 368.21666666666664, N
132815, 368.93055555555554, N
133160, 369.8888888888889, N
133427, 370.63055555555553, N
133790, 371.6388888888889, N
134059, 372.3861111111111, N
134363, 373.23055555555555, N
134606, 373.90555555555557, N
134842, 374.56111111111113, N
135090, 375.25, N
135354, 375.98333333333335, N
135608, 376.68888888888887, N
135869, 377.4138888888889, N
136091, 378.03055555555557, N
136226, 378.40555555555557, +
137429, 381.7472222222222, j
138167, 383.7972222222222, j
138552, 384.8666666666667, +
138701, 385.28055555555557, N
139293, 386.925, j
139691, 388.03055555555557, N
140255, 389.59722222222223, N
140744, 390.9555555555556, N
140913, 391.425, a
141441, 392.89166666666665, N
141962, 394.3388888888889, N
142435, 395.65277777777777, N
142889, 396.9138888888889, N
143128, 397.5777777777778, V
143374, 398.2611111111111, N
143823, 399.5083333333333, N
144324, 400.9, N
144747, 402.075, N
145119, 403.10833333333335, V
145575, 404.375, N
146018, 405.60555555555555, N
146447, 406.7972222222222, N
146863, 407.9527777777778, N
147274, 409.09444444444443, N
147691, 410.2527777777778, N
148133, 411.48055555555555, N
148597, 412.76944444444445, N
149026, 413.9611111111111, N
149469, 415.19166666666666, N
149923, 416.4527777777778, N
150413, 417.81388888888887, N
150896, 419.15555555555557, N
151348, 420.4111111111111, N
151785, 421.625, N
152229, 422.85833333333335, N
152704, 424.1777777777778, N
153147, 425.40833333333336, N
153572, 426.5888888888889, N
153924, 427.56666666666666, V
154251, 428.475, N
154408, 428.9111111111111, a
154954, 430.4277777777778, N
155188, 431.0777777777778, a
155635, 432.31944444444446, N
156285, 434.125, N
156749, 435.4138888888889, N
157166, 436.5722222222222, V
157449, 437.35833333333335, N
157876, 438.5444444444444, N
158083, 439.11944444444447, a
158564, 440.4555555555556, N
159282, 442.45, N
159364, 442.6777777777778, x
159951, 444.30833333333334, N
160024, 444.5111111111111, x
160609, 446.1361111111111, N
160693, 446.36944444444447, x
161291, 448.03055555555557, N
161716, 449.2111111111111, N
161905, 449.7361111111111, a
162372, 451.03333333333336, N
162810, 452.25, N
163294, 453.59444444444443, N
163789, 454.96944444444443, N
164236, 456.2111111111111, N
164702, 457.50555555555553, N
165158, 458.77222222222224, N
165235, 458.9861111111111, x
165508, 459.74444444444447, V
165879, 460.775, N
166315, 461.9861111111111, N
166407, 462.2416666666667, x
166975, 463.81944444444446, N
167426, 465.0722222222222, N
167882, 466.3388888888889, N
168323, 467.56388888888887, N
168513, 468.09166666666664, a
168989, 469.4138888888889, N
169430, 470.6388888888889, N
169791, 471.64166666666665, V
170145, 472.625, N
170580, 473.8333333333333, N
171037, 475.10277777777776, N
171500, 476.3888888888889, N
171815, 477.2638888888889, +
171883, 477.4527777777778, V
172064, 477.9555555555556, a
172235, 478.43055555555554, a
172463, 479.06388888888887, N
172633, 479.5361111111111, a
172769, 479.9138888888889, a
173007, 480.575, N
173187, 481.075, N
173366, 481.5722222222222, N
173542, 482.06111111111113, N
173698, 482.49444444444447, N
173880, 483.0, N
174137, 483.7138888888889, N
174321, 484.225, a
174560, 484.8888888888889, N
174741, 485.39166666666665, N
174974, 486.0388888888889, N
175168, 486.5777777777778, N
175356, 487.1, N
175545, 487.625, N
175766, 488.2388888888889, N
176067, 489.075, N
176257, 489.60277777777776, N
176524, 490.34444444444443, N
176795, 491.09722222222223, N
177056, 491.8222222222222, N
177213, 492.2583333333333, N
177426, 492.85, N
177611, 493.3638888888889, N
177867, 494.075, N
178141, 494.8361111111111, N
178302, 495.28333333333336, N
178502, 495.8388888888889, N
178802, 496.6722222222222, N
179023, 497.2861111111111, N
179174, 497.7055555555556, N
179435, 498.43055555555554, N
179615, 498.93055555555554, N
179869, 499.6361111111111, N
180064, 500.1777777777778, N
180280, 500.77777777777777, N
180452, 501.25555555555553, N
180617, 501.7138888888889, N
180760, 502.1111111111111, N
180962, 502.6722222222222, N
181177, 503.26944444444445, N
181439, 503.9972222222222, N
181582, 504.39444444444445, a
181732, 504.81111111111113, a
181932, 505.3666666666667, N
182162, 506.00555555555553, N
182593, 507.2027777777778, N
182933, 508.14722222222224, N
183243, 509.0083333333333, N
183388, 509.4111111111111, a
183686, 510.2388888888889, N
183888, 510.8, N
184030, 511.19444444444446, N
184280, 511.8888888888889, N
184431, 512.3083333333333, N
184600, 512.7777777777778, N
184755, 513.2083333333334, N
185068, 514.0777777777778, +
185330, 514.8055555555555, N
186038, 516.7722222222222, j
186377, 517.7138888888888, N
187101, 519.725, j
187323, 520.3416666666667, A
187984, 522.1777777777778, j
188183, 522.7305555555556, A
188387, 523.2972222222222, +
188577, 523.825, N
189064, 525.1777777777778, N
189391, 526.0861111111111, V
189598, 526.6611111111112, J
190004, 527.7888888888889, N
190075, 527.9861111111111, x
190669, 529.6361111111111, N
190744, 529.8444444444444, x
191370, 531.5833333333334, N
191455, 531.8194444444445, x
192066, 533.5166666666667, N
192138, 533.7166666666667, x
192716, 535.3222222222222, N
192789, 535.525, x
193402, 537.2277777777778, N
193490, 537.4722222222222, x
194092, 539.1444444444444, N
194173, 539.3694444444444, x
194741, 540.9472222222222, N
194810, 541.1388888888889, x
195421, 542.8361111111111, N
195503, 543.0638888888889, x
196137, 544.825, N
196227, 545.075, x
196801, 546.6694444444445, N
197209, 547.8027777777778, N
197544, 548.7333333333333, V
197816, 549.4888888888889, N
198355, 550.9861111111111, N
198452, 551.2555555555556, x
199034, 552.8722222222223, N
199458, 554.05, N
199610, 554.4722222222222, +
199762, 554.8944444444444, V
200330, 556.4722222222222, N
200757, 557.6583333333333, N
201061, 558.5027777777777, V
201583, 559.9527777777778, N
202008, 561.1333333333333, N
202371, 562.1416666666667, V
202852, 563.4777777777778, N
203263, 564.6194444444444, N
203608, 565.5777777777778, V
204087, 566.9083333333333, N
204540, 568.1666666666666, N
204885, 569.125, V
205370, 570.4722222222222, N
205775, 571.5972222222222, N
206135, 572.5972222222222, V
206641, 574.0027777777777, N
207088, 575.2444444444444, N
207431, 576.1972222222222, V
207663, 576.8416666666667, +
207895, 577.4861111111111, N
208317, 578.6583333333333, N
208519, 579.2194444444444, a
209042, 580.6722222222222, N
209465, 581.8472222222222, N
209794, 582.7611111111111, V
210145, 583.7361111111111, N
210584, 584.9555555555555, N
210928, 585.9111111111112, V
211225, 586.7361111111111, N
211766, 588.2388888888889, N
212199, 589.4416666666667, N
212655, 590.7083333333334, N
212989, 591.6361111111111, V
213276, 592.4333333333333, N
213804, 593.9, N
214230, 595.0833333333334, N
214662, 596.2833333333333, N
214992, 597.2, V
215293, 598.0361111111112, N
215822, 599.5055555555556, N
216242, 600.6722222222222, N
216670, 601.8611111111111, N
217010, 602.8055555555555, V
217311, 603.6416666666667, N
217869, 605.1916666666667, N
218323, 606.4527777777778, N
218749, 607.6361111111111, N
218912, 608.0888888888888, +
219075, 608.5416666666666, V
219660, 610.1666666666666, N
220097, 611.3805555555556, N
220401, 612.225, V
220924, 613.6777777777778, N
221339, 614.8305555555555, N
221710, 615.8611111111111, V
222188, 617.1888888888889, N
222606, 618.35, N
222926, 619.2388888888889, V
223189, 619.9694444444444, +
223453, 620.7027777777778, N
223914, 621.9833333333333, N
224368, 623.2444444444444, N
224804, 624.4555555555555, N
225253, 625.7027777777778, N
225703, 626.9527777777778, N
226170, 628.25, N
226620, 629.5, N
227029, 630.6361111111111, N
227447, 631.7972222222222, N
227896, 633.0444444444445, N
228330, 634.25, N
228657, 635.1583333333333, V
229167, 636.575, N
229369, 637.1361111111111, a
229817, 638.3805555555556, N
230263, 639.6194444444444, N
230709, 640.8583333333333, N
230877, 641.325, +
231045, 641.7916666666666, V
231545, 643.1805555555555, N
231987, 644.4083333333333, N
232307, 645.2972222222222, V
232858, 646.8277777777778, N
233284, 648.0111111111111, N
233617, 648.9361111111111, V
234099, 650.275, N
234548, 651.5222222222222, N
234912, 652.5333333333333, V
235391, 653.8638888888889, N
235806, 655.0166666666667, N
236148, 655.9666666666667, V
236273, 656.3138888888889, +
236399, 656.6638888888889, N
236945, 658.1805555555555, N
237390, 659.4166666666666, N
237799, 660.5527777777778, N
237968, 661.0222222222222, +
238137, 661.4916666666667, V
238660, 662.9444444444445, N
239116, 664.2111111111111, N
239450, 665.1388888888889, V
239951, 666.5305555555556, N
240350, 667.6388888888889, N
240714, 668.65, V
241191, 669.975, N
241638, 671.2166666666667, N
241963, 672.1194444444444, V
242448, 673.4666666666667, N
242874, 674.65, N
243245, 675.6805555555555, V
243730, 677.0277777777778, N
244160, 678.2222222222222, N
244481, 679.1138888888889, V
244990, 680.5277777777778, N
245435, 681.7638888888889, N
245800, 682.7777777777778, V
246257, 684.0472222222222, N
246667, 685.1861111111111, N
247006, 686.1277777777777, V
247495, 687.4861111111111, N
247937, 688.7138888888888, N
248278, 689.6611111111112, V
248718, 690.8833333333333, N
249130, 692.0277777777778, N
249471, 692.975, V
249950, 694.3055555555555, N
250389, 695.525, N
250699, 696.3861111111111, V
251215, 697.8194444444445, N
251646, 699.0166666666667, N
251989, 699.9694444444444, V
252516, 701.4333333333333, N
252926, 702.5722222222222, N
253243, 703.4527777777778, V
253758, 704.8833333333333, N
254176, 706.0444444444445, N
254549, 707.0805555555555, V
255017, 708.3805555555556, N
255444, 709.5666666666667, N
255762, 710.45, V
256334, 712.0388888888889, N
256765, 713.2361111111111, N
257082, 714.1166666666667, V
257584, 715.5111111111111, N
258016, 716.7111111111111, N
258357, 717.6583333333333, V
258839, 718.9972222222223, N
259259, 720.1638888888889, N
259567, 721.0194444444444, V
260033, 722.3138888888889, N
260479, 723.5527777777778, N
260809, 724.4694444444444, V
261287, 725.7972222222222, N
261710, 726.9722222222222, N
262016, 727.8222222222222, V
262534, 729.2611111111111, N
262980, 730.5, N
263297, 731.3805555555556, V
263803, 732.7861111111112, N
264212, 733.9222222222222, N
264544, 734.8444444444444, V
265070, 736.3055555555555, N
265494, 737.4833333333333, N
265808, 738.3555555555556, V
266038, 738.9944444444444, +
266268, 739.6333333333333, N
266466, 740.1833333333333, a
266921, 741.4472222222222, N
267359, 742.6638888888889, N
267699, 743.6083333333333, V
268141, 744.8361111111111, N
268326, 745.35, a
268799, 746.6638888888889, N
269236, 747.8777777777777, N
269668, 749.0777777777778, N
269998, 749.9944444444444, V
270495, 751.375, N
270923, 752.5638888888889, N
271243, 753.4527777777778, V
271758, 754.8833333333333, N
271956, 755.4333333333333, a
272389, 756.6361111111111, N
272794, 757.7611111111111, N
273218, 758.9388888888889, N
273565, 759.9027777777778, V
274048, 761.2444444444444, N
274232, 761.7555555555556, a
274689, 763.025, N
275106, 764.1833333333333, N
275565, 765.4583333333334, N
275888, 766.3555555555556, V
276441, 767.8916666666667, N
276870, 769.0833333333334, N
277545, 770.9583333333334, N
277995, 772.2083333333334, N
278437, 773.4361111111111, N
278733, 774.2583333333333, V
279247, 775.6861111111111, N
279691, 776.9194444444445, N
279890, 777.4722222222222, a
280382, 778.8388888888888, N
280812, 780.0333333333333, N
281234, 781.2055555555555, N
281500, 781.9444444444445, V
281926, 783.1277777777777, N
282391, 784.4194444444445, N
282692, 785.2555555555556, V
282880, 785.7777777777778, N
283245, 786.7916666666666, N
283680, 788.0, N
283885, 788.5694444444445, a
284380, 789.9444444444445, N
284820, 791.1666666666666, N
285250, 792.3611111111111, N
285554, 793.2055555555555, V
286098, 794.7166666666667, N
286557, 795.9916666666667, N
286998, 797.2166666666667, N
287288, 798.0222222222222, V
287834, 799.5388888888889, N
288256, 800.7111111111111, N
288689, 801.9138888888889, N
289059, 802.9416666666667, V
289538, 804.2722222222222, N
289951, 805.4194444444445, N
290383, 806.6194444444444, N
290750, 807.6388888888889, V
291015, 808.375, N
291530, 809.8055555555555, N
291952, 810.9777777777778, N
292375, 812.1527777777778, N
292545, 812.625, +
292715, 813.0972222222222, V
293239, 814.5527777777778, N
293660, 815.7222222222222, N
293983, 816.6194444444444, V
294470, 817.9722222222222, N
294904, 819.1777777777778, N
295238, 820.1055555555556, V
295730, 821.4722222222222, N
296155, 822.6527777777778, N
296454, 823.4833333333333, V
296960, 824.8888888888889, N
297409, 826.1361111111111, N
297735, 827.0416666666666, V
298237, 828.4361111111111, N
298656, 829.6, N
298977, 830.4916666666667, V
299527, 832.0194444444444, N
299971, 833.2527777777777, N
300291, 834.1416666666667, V
300782, 835.5055555555556, N
301206, 836.6833333333333, N
301560, 837.6666666666666, V
302041, 839.0027777777777, N
302446, 840.1277777777777, N
302782, 841.0611111111111, V
303232, 842.3111111111111, N
303671, 843.5305555555556, N
304022, 844.5055555555556, V
304484, 845.7888888888889, N
304888, 846.9111111111112, N
305226, 847.85, V
305742, 849.2833333333333, N
306167, 850.4638888888888, N
306517, 851.4361111111111, V
306992, 852.7555555555556, N
307406, 853.9055555555556, N
307738, 854.8277777777778, V
308258, 856.2722222222222, N
308676, 857.4333333333333, N
309000, 858.3333333333334, V
309454, 859.5944444444444, N
309891, 860.8083333333333, N
310228, 861.7444444444444, V
310716, 863.1, N
311129, 864.2472222222223, N
311449, 865.1361111111111, V
311914, 866.4277777777778, N
312360, 867.6666666666666, N
312701, 868.6138888888889, V
313190, 869.9722222222222, N
313611, 871.1416666666667, N
313924, 872.0111111111111, V
314419, 873.3861111111111, N
314850, 874.5833333333334, N
315187, 875.5194444444444, V
315630, 876.75, N
316048, 877.9111111111112, N
316362, 878.7833333333333, V
316875, 880.2083333333334, N
317300, 881.3888888888889, N
317608, 882.2444444444444, V
318116, 883.6555555555556, N
318545, 884.8472222222222, N
318872, 885.7555555555556, V
319419, 887.275, N
319820, 888.3888888888889, N
320119, 889.2194444444444, V
320625, 890.625, N
321060, 891.8333333333334, N
321386, 892.7388888888889, V
321877, 894.1027777777778, N
322286, 895.2388888888889, N
322600, 896.1111111111111, V
323109, 897.525, N
323552, 898.7555555555556, N
323868, 899.6333333333333, V
324358, 900.9944444444444, N
324781, 902.1694444444445, N
325107, 903.075, V
325609, 904.4694444444444, N
326048, 905.6888888888889, N
326330, 906.4722222222222, V
326811, 907.8083333333333, N
327236, 908.9888888888889, N
327584, 909.9555555555555, V
328046, 911.2388888888889, N
328471, 912.4194444444445, N
328731, 913.1416666666667, V
328999, 913.8861111111111, +
329268, 914.6333333333333, N
329718, 915.8833333333333, N
330154, 917.0944444444444, N
330443, 917.8972222222222, V
330966, 919.35, N
331401, 920.5583333333333, N
331841, 921.7805555555556, N
332157, 922.6583333333333, V
332694, 924.15, N
333099, 925.275, N
333497, 926.3805555555556, N
333831, 927.3083333333333, V
334357, 928.7694444444444, N
334768, 929.9111111111112, N
335155, 930.9861111111111, N
335487, 931.9083333333333, V
335987, 933.2972222222222, N
336430, 934.5277777777778, N
336848, 935.6888888888889, N
337158, 936.55, V
337666, 937.9611111111111, N
338121, 939.225, N
338577, 940.4916666666667, N
338860, 941.2777777777778, V
339049, 941.8027777777778, N
339408, 942.8, N
339837, 943.9916666666667, N
340278, 945.2166666666667, N
340587, 946.075, V
341147, 947.6305555555556, N
341549, 948.7472222222223, N
341955, 949.875, N
342286, 950.7944444444445, V
342806, 952.2388888888889, N
343225, 953.4027777777778, N
343645, 954.5694444444445, N
343959, 955.4416666666667, V
344465, 956.8472222222222, N
344909, 958.0805555555555, N
345347, 959.2972222222222, N
345645, 960.125, V
346155, 961.5416666666666, N
346591, 962.7527777777777, N
347019, 963.9416666666667, N
347354, 964.8722222222223, V
347849, 966.2472222222223, N
348266, 967.4055555555556, N
348680, 968.5555555555555, N
349037, 969.5472222222222, V
349562, 971.0055555555556, N
349992, 972.2, N
350391, 973.3083333333333, N
350741, 974.2805555555556, V
351242, 975.6722222222222, N
351683, 976.8972222222222, N
352024, 977.8444444444444, V
352463, 979.0638888888889, N
352653, 979.5916666666667, a
353128, 980.9111111111112, N
353573, 982.1472222222222, N
353743, 982.6194444444444, +
353913, 983.0916666666667, V
354409, 984.4694444444444, N
354832, 985.6444444444444, N
355135, 986.4861111111111, V
355662, 987.95, N
356074, 989.0944444444444, N
356438, 990.1055555555556, V
356839, 991.2194444444444, N
357272, 992.4222222222222, N
357619, 993.3861111111111, V
357861, 994.0583333333333, +
358104, 994.7333333333333, N
358311, 995.3083333333333, a
358744, 996.5111111111111, N
359137, 997.6027777777778, N
359496, 998.6, V
359960, 999.8888888888889, N
360398, 1001.1055555555556, N
360708, 1001.9666666666667, V
361175, 1003.2638888888889, N
361606, 1004.4611111111111, N
361983, 1005.5083333333333, N
362159, 1005.9972222222223, A
362657, 1007.3805555555556, N
363047, 1008.4638888888888, N
363392, 1009.4222222222222, V
363811, 1010.5861111111111, N
364218, 1011.7166666666667, N
364621, 1012.8361111111111, N
364992, 1013.8666666666667, N
365180, 1014.3888888888889, +
365369, 1014.9138888888889, V
365761, 1016.0027777777777, N
366179, 1017.1638888888889, N
366547, 1018.1861111111111, V
367003, 1019.4527777777778, N
367394, 1020.5388888888889, N
367759, 1021.5527777777778, V
368222, 1022.8388888888888, N
368650, 1024.0277777777778, N
369037, 1025.1027777777779, V
369472, 1026.3111111111111, N
369878, 1027.4388888888889, N
370270, 1028.5277777777778, V
370726, 1029.7944444444445, N
371155, 1030.986111111111, N
371525, 1032.013888888889, V
371944, 1033.1777777777777, N
372356, 1034.3222222222223, N
372754, 1035.4277777777777, V
373185, 1036.625, N
373619, 1037.8305555555555, N
373957, 1038.7694444444444, V
374067, 1039.075, +
374177, 1039.3805555555555, N
374663, 1040.7305555555556, N
375112, 1041.9777777777779, N
375540, 1043.1666666666667, N
375711, 1043.6416666666667, +
375882, 1044.1166666666666, V
376332, 1045.3666666666666, N
376767, 1046.575, N
377094, 1047.4833333333333, V
377589, 1048.8583333333333, N
378021, 1050.0583333333334, N
378342, 1050.95, V
378794, 1052.2055555555555, N
379258, 1053.4944444444445, N
379595, 1054.4305555555557, V
380080, 1055.7777777777778, N
380490, 1056.9166666666667, N
380832, 1057.8666666666666, V
381280, 1059.111111111111, N
381714, 1060.3166666666666, N
382092, 1061.3666666666666, V
382490, 1062.4722222222222, N
382904, 1063.6222222222223, N
383251, 1064.5861111111112, V
383746, 1065.9611111111112, N
384167, 1067.1305555555555, N
384525, 1068.125, V
384958, 1069.3277777777778, N
385389, 1070.525, N
385741, 1071.5027777777777, V
386248, 1072.911111111111, N
386657, 1074.0472222222222, N
386998, 1074.9944444444445, V
387112, 1075.3111111111111, +
387227, 1075.6305555555555, N
387728, 1077.0222222222221, N
388178, 1078.2722222222221, N
388600, 1079.4444444444443, N
388776, 1079.9333333333334, +
388952, 1080.4222222222222, V
389408, 1081.6888888888889, N
389855, 1082.9305555555557, N
390213, 1083.925, V
390679, 1085.2194444444444, N
391065, 1086.2916666666667, N
391429, 1087.3027777777777, V
391637, 1087.8805555555555, +
391845, 1088.4583333333333, N
392041, 1089.0027777777777, a
392172, 1089.3666666666666, a
392544, 1090.4, N
392959, 1091.5527777777777, N
393128, 1092.0222222222221, +
393297, 1092.4916666666666, V
393762, 1093.7833333333333, N
394211, 1095.0305555555556, N
394567, 1096.0194444444444, V
395070, 1097.4166666666667, N
395181, 1097.725, ~
395486, 1098.5722222222223, N
395610, 1098.9166666666667, ~
395818, 1099.4944444444445, V
396037, 1100.1027777777779, +
396256, 1100.7111111111112, N
396465, 1101.2916666666667, ~
396657, 1101.825, N
396840, 1102.3333333333333, A
397228, 1103.411111111111, ~
397302, 1103.6166666666666, N
397651, 1104.5861111111112, N
397821, 1105.0583333333334, A
398276, 1106.3222222222223, N
398477, 1106.8805555555555, a
398894, 1108.0388888888888, j
399341, 1109.2805555555556, N
399700, 1110.2777777777778, N
400064, 1111.2888888888888, N
400407, 1112.2416666666666, N
400593, 1112.7583333333334, A
400755, 1113.2083333333333, A
401105, 1114.1805555555557, N
401501, 1115.2805555555556, N
401890, 1116.361111111111, V
402356, 1117.6555555555556, N
403077, 1119.6583333333333, N
403582, 1121.0611111111111, N
404033, 1122.3138888888889, N
404477, 1123.5472222222222, N
404944, 1124.8444444444444, N
405438, 1126.2166666666667, N
405626, 1126.7388888888888, a
406176, 1128.2666666666667, j
406381, 1128.8361111111112, A
406910, 1130.3055555555557, N
407614, 1132.2611111111112, N
407942, 1133.1722222222222, N
408286, 1134.1277777777777, N
408677, 1135.213888888889, N
409085, 1136.3472222222222, V
409554, 1137.65, N
410002, 1138.8944444444444, N
410424, 1140.0666666666666, N
410832, 1141.2, N
411249, 1142.3583333333333, N
411699, 1143.6083333333333, N
412129, 1144.8027777777777, N
412498, 1145.8277777777778, V
412698, 1146.3833333333334, A
412853, 1146.8138888888889, A
413184, 1147.7333333333333, N
413617, 1148.9361111111111, N
413997, 1149.9916666666666, V
414228, 1150.6333333333334, A
414738, 1152.05, N
415145, 1153.1805555555557, N
415563, 1154.3416666666667, N
415953, 1155.425, V
416444, 1156.7888888888888, N
416851, 1157.9194444444445, N
417225, 1158.9583333333333, V
417433, 1159.536111111111, A
417590, 1159.9722222222222, A
417934, 1160.9277777777777, N
418367, 1162.1305555555555, N
418752, 1163.2, V
419208, 1164.4666666666667, N
419396, 1164.9888888888888, a
419870, 1166.3055555555557, N
420307, 1167.5194444444444, N
420493, 1168.036111111111, +
420680, 1168.5555555555557, V
421139, 1169.8305555555555, N
421548, 1170.9666666666667, N
421903, 1171.9527777777778, V
422376, 1173.2666666666667, N
422822, 1174.5055555555555, N
423171, 1175.475, V
423628, 1176.7444444444445, N
424032, 1177.8666666666666, N
424416, 1178.9333333333334, V
424535, 1179.263888888889, +
424654, 1179.5944444444444, A
424806, 1180.0166666666667, A
425184, 1181.0666666666666, N
425599, 1182.2194444444444, N
426006, 1183.35, N
426424, 1184.5111111111112, N
426815, 1185.5972222222222, V
427319, 1186.9972222222223, N
427509, 1187.525, a
427642, 1187.8944444444444, a
427984, 1188.8444444444444, N
428397, 1189.9916666666666, N
428761, 1191.0027777777777, V
429248, 1192.3555555555556, N
429686, 1193.5722222222223, N
429869, 1194.0805555555555, a
430324, 1195.3444444444444, N
430753, 1196.536111111111, N
431126, 1197.5722222222223, V
431612, 1198.9222222222222, N
432034, 1200.0944444444444, N
432365, 1201.013888888889, V
432858, 1202.3833333333334, N
433294, 1203.5944444444444, N
433737, 1204.825, N
433928, 1205.3555555555556, a
434381, 1206.6138888888888, N
434791, 1207.7527777777777, N
435151, 1208.7527777777777, V
435648, 1210.1333333333334, N
436076, 1211.3222222222223, N
436484, 1212.4555555555555, N
436829, 1213.4138888888888, V
437306, 1214.7388888888888, N
437516, 1215.3222222222223, a
437659, 1215.7194444444444, a
438033, 1216.7583333333334, N
438439, 1217.8861111111112, N
438865, 1219.0694444444443, N
439198, 1219.9944444444445, V
439456, 1220.7111111111112, A
439621, 1221.1694444444445, A
440003, 1222.2305555555556, N
440416, 1223.3777777777777, V
440853, 1224.5916666666667, N
441259, 1225.7194444444444, N
441643, 1226.786111111111, V
442124, 1228.1222222222223, N
442309, 1228.6361111111112, a
442772, 1229.9222222222222, N
443190, 1231.0833333333333, N
443545, 1232.0694444444443, V
444035, 1233.4305555555557, N
444465, 1234.625, N
444841, 1235.6694444444445, V
445050, 1236.25, A
445526, 1237.5722222222223, N
445968, 1238.8, N
446410, 1240.0277777777778, N
446776, 1241.0444444444445, V
447007, 1241.6861111111111, A
447509, 1243.0805555555555, N
447923, 1244.2305555555556, N
448365, 1245.4583333333333, N
448732, 1246.4777777777779, V
449222, 1247.838888888889, N
449625, 1248.9583333333333, N
449984, 1249.9555555555555, V
450485, 1251.3472222222222, N
450924, 1252.5666666666666, N
451119, 1253.1083333333333, a
451254, 1253.4833333333333, a
451605, 1254.4583333333333, N
452001, 1255.5583333333334, N
452194, 1256.0944444444444, a
452707, 1257.5194444444444, N
453152, 1258.7555555555555, N
453468, 1259.6333333333334, V
453982, 1261.0611111111111, N
454413, 1262.2583333333334, N
454842, 1263.45, N
455047, 1264.0194444444444, a
455555, 1265.4305555555557, N
455966, 1266.5722222222223, N
456272, 1267.4222222222222, V
456801, 1268.8916666666667, N
457246, 1270.1277777777777, N
457664, 1271.2888888888888, N
458008, 1272.2444444444445, V
458470, 1273.5277777777778, N
458666, 1274.0722222222223, a
459140, 1275.388888888889, N
459587, 1276.6305555555555, N
459996, 1277.7666666666667, N
460334, 1278.7055555555555, V
460781, 1279.9472222222223, N
461232, 1281.2, N
461555, 1282.0972222222222, V
462069, 1283.525, N
462156, 1283.7666666666667, x
462721, 1285.3361111111112, N
463131, 1286.475, N
463578, 1287.7166666666667, N
463943, 1288.7305555555556, V
464405, 1290.013888888889, N
464575, 1290.486111111111, a
465065, 1291.8472222222222, N
465497, 1293.0472222222222, N
465932, 1294.2555555555555, N
466112, 1294.7555555555555, +
466292, 1295.2555555555555, V
466743, 1296.5083333333334, N
467152, 1297.6444444444444, N
467477, 1298.5472222222222, V
467985, 1299.9583333333333, N
468405, 1301.125, N
468740, 1302.0555555555557, V
469202, 1303.338888888889, N
469600, 1304.4444444444443, N
469974, 1305.4833333333333, V
470428, 1306.7444444444445, N
470853, 1307.925, N
471157, 1308.7694444444444, V
471660, 1310.1666666666667, N
472092, 1311.3666666666666, N
472470, 1312.4166666666667, V
472950, 1313.75, N
473365, 1314.9027777777778, N
473705, 1315.8472222222222, V
474195, 1317.2083333333333, N
474627, 1318.4083333333333, N
475002, 1319.45, V
475438, 1320.661111111111, N
475867, 1321.8527777777779, N
476225, 1322.8472222222222, V
476714, 1324.2055555555555, N
477136, 1325.3777777777777, N
477496, 1326.3777777777777, V
477922, 1327.5611111111111, N
478354, 1328.7611111111112, N
478729, 1329.8027777777777, V
479167, 1331.0194444444444, N
479595, 1332.2083333333333, N
479922, 1333.1166666666666, V
480401, 1334.4472222222223, N
480826, 1335.6277777777777, N
481219, 1336.7194444444444, V
481689, 1338.025, N
482103, 1339.175, N
482456, 1340.1555555555556, V
482976, 1341.6, N
483403, 1342.786111111111, N
483771, 1343.8083333333334, V
484198, 1344.9944444444445, N
484620, 1346.1666666666667, N
484974, 1347.15, V
485490, 1348.5833333333333, N
485887, 1349.6861111111111, N
486238, 1350.661111111111, V
486689, 1351.9138888888888, N
487118, 1353.1055555555556, N
487494, 1354.15, V
487965, 1355.4583333333333, N
488365, 1356.5694444444443, N
488709, 1357.525, V
489202, 1358.8944444444444, N
489656, 1360.1555555555556, N
490001, 1361.1138888888888, V
490461, 1362.3916666666667, N
490878, 1363.55, N
491225, 1364.513888888889, V
491706, 1365.85, N
492124, 1367.0111111111112, N
492495, 1368.0416666666667, V
492708, 1368.6333333333334, +
492921, 1369.225, N
493374, 1370.4833333333333, N
493856, 1371.8222222222223, N
494285, 1373.013888888889, N
494706, 1374.1833333333334, N
495133, 1375.3694444444445, N
495555, 1376.5416666666667, N
496016, 1377.8222222222223, N
496451, 1379.0305555555556, N
496859, 1380.1638888888888, N
497264, 1381.2888888888888, N
497709, 1382.525, N
498141, 1383.725, N
498584, 1384.9555555555555, N
499000, 1386.111111111111, N
499410, 1387.25, N
499826, 1388.4055555555556, N
500283, 1389.675, N
500724, 1390.9, N
501149, 1392.0805555555555, N
501572, 1393.2555555555555, N
502006, 1394.4611111111112, N
502449, 1395.6916666666666, N
502887, 1396.9083333333333, N
503304, 1398.0666666666666, N
503708, 1399.1888888888889, N
504144, 1400.4, N
504594, 1401.65, N
505021, 1402.8361111111112, N
505434, 1403.9833333333333, N
505841, 1405.1138888888888, N
506255, 1406.263888888889, N
506695, 1407.486111111111, N
507144, 1408.7333333333333, N
507555, 1409.875, N
507959, 1410.9972222222223, V
508376, 1412.1555555555556, N
508790, 1413.3055555555557, N
509229, 1414.525, N
509651, 1415.6972222222223, N
510061, 1416.8361111111112, N
510454, 1417.9277777777777, V
510914, 1419.2055555555555, N
511356, 1420.4333333333334, N
511766, 1421.5722222222223, N
512171, 1422.6972222222223, N
512581, 1423.8361111111112, N
512999, 1424.9972222222223, N
513433, 1426.2027777777778, N
513844, 1427.3444444444444, N
514238, 1428.4388888888889, N
514629, 1429.525, N
515061, 1430.725, N
515500, 1431.9444444444443, N
515914, 1433.0944444444444, N
516325, 1434.236111111111, N
516740, 1435.388888888889, N
517166, 1436.5722222222223, N
517613, 1437.8138888888889, N
518049, 1439.025, N
518447, 1440.1305555555555, N
518854, 1441.2611111111112, N
519268, 1442.411111111111, N
519715, 1443.6527777777778, N
520105, 1444.736111111111, N
520534, 1445.9277777777777, N
520916, 1446.9888888888888, N
521333, 1448.1472222222221, N
521767, 1449.3527777777779, N
522226, 1450.6277777777777, V
522424, 1451.1777777777777, a
522564, 1451.5666666666666, A
522927, 1452.575, N
523354, 1453.7611111111112, N
523554, 1454.3166666666666, a
524043, 1455.675, N
524465, 1456.8472222222222, N
524641, 1457.3361111111112, a
524774, 1457.7055555555555, a
525129, 1458.6916666666666, N
525533, 1459.8138888888889, N
525969, 1461.025, F
526408, 1462.2444444444445, N
526587, 1462.7416666666666, a
527103, 1464.175, N
527310, 1464.75, a
527806, 1466.1277777777777, N
527903, 1466.3972222222221, x
528550, 1468.1944444444443, N
528739, 1468.7194444444444, a
529258, 1470.161111111111, N
529460, 1470.7222222222222, a
529955, 1472.0972222222222, N
530053, 1472.3694444444445, x
530695, 1474.1527777777778, N
530879, 1474.6638888888888, a
531413, 1476.1472222222221, N
531611, 1476.6972222222223, a
532105, 1478.0694444444443, N
532320, 1478.6666666666667, a
532855, 1480.1527777777778, N
532956, 1480.4333333333334, x
533554, 1482.0944444444444, N
533729, 1482.5805555555555, a
534242, 1484.0055555555555, N
534443, 1484.5638888888889, a
534980, 1486.0555555555557, N
535176, 1486.6, a
535314, 1486.9833333333333, A
535690, 1488.0277777777778, N
535879, 1488.5527777777777, a
536375, 1489.9305555555557, N
536473, 1490.2027777777778, x
537134, 1492.0388888888888, N
537313, 1492.536111111111, a
537840, 1494.0, N
538025, 1494.513888888889, a
538146, 1494.85, a
538538, 1495.9388888888889, N
538728, 1496.4666666666667, a
539283, 1498.0083333333334, N
539386, 1498.2944444444445, x
540001, 1500.0027777777777, N
540174, 1500.4833333333333, a
540692, 1501.9222222222222, N
540903, 1502.5083333333334, a
541445, 1504.013888888889, N
541629, 1504.525, a
541865, 1505.1805555555557, N
542230, 1506.1944444444443, N
542396, 1506.6555555555556, A
542921, 1508.1138888888888, N
543144, 1508.7333333333333, a
543693, 1510.2583333333334, N
543793, 1510.536111111111, x
544401, 1512.225, N
544575, 1512.7083333333333, a
545132, 1514.2555555555555, N
545324, 1514.7888888888888, A
545889, 1516.3583333333333, N
546098, 1516.9388888888889, a
546601, 1518.3361111111112, N
546687, 1518.575, x
547295, 1520.263888888889, N
547485, 1520.7916666666667, a
547639, 1521.2194444444444, a
548032, 1522.3111111111111, N
548230, 1522.861111111111, a
548354, 1523.2055555555555, a
548741, 1524.2805555555556, N
548833, 1524.536111111111, x
549053, 1525.1472222222221, N
549478, 1526.3277777777778, N
549690, 1526.9166666666667, a
550263, 1528.5083333333334, N
550972, 1530.4777777777779, N
551140, 1530.9444444444443, a
551699, 1532.4972222222223, N
551796, 1532.7666666666667, x
551907, 1533.075, x
552443, 1534.5638888888889, N
552618, 1535.05, a
553145, 1536.513888888889, N
553558, 1537.661111111111, N
553996, 1538.8777777777777, N
554359, 1539.8861111111112, V
554613, 1540.5916666666667, N
555139, 1542.0527777777777, N
555842, 1544.0055555555555, N
556029, 1544.525, a
556577, 1546.0472222222222, N
557278, 1547.9944444444445, N
557457, 1548.4916666666666, a
557602, 1548.8944444444444, A
557941, 1549.8361111111112, N
558269, 1550.7472222222223, N
558643, 1551.786111111111, N
558830, 1552.3055555555557, A
558969, 1552.6916666666666, A
559322, 1553.6722222222222, N
559499, 1554.1638888888888, A
559628, 1554.5222222222221, A
559989, 1555.525, N
560175, 1556.0416666666667, A
560709, 1557.525, N
560815, 1557.8194444444443, x
561433, 1559.536111111111, N
561609, 1560.025, a
561735, 1560.375, a
562130, 1561.4722222222222, N
562311, 1561.975, a
562460, 1562.388888888889, a
562923, 1563.675, N
563378, 1564.9388888888889, N
563573, 1565.4805555555556, a
564081, 1566.8916666666667, N
564262, 1567.3944444444444, a
564805, 1568.9027777777778, N
564913, 1569.2027777777778, x
565565, 1571.013888888889, F
565732, 1571.4777777777779, a
566244, 1572.9, N
566349, 1573.1916666666666, x
566984, 1574.9555555555555, N
567165, 1575.4583333333333, a
567708, 1576.9666666666667, N
567803, 1577.2305555555556, x
568396, 1578.8777777777777, N
568486, 1579.1277777777777, x
569094, 1580.8166666666666, N
569289, 1581.3583333333333, a
569829, 1582.8583333333333, N
569921, 1583.1138888888888, x
570493, 1584.7027777777778, N
570586, 1584.9611111111112, +
570676, 1585.2111111111112, a
570815, 1585.5972222222222, a
571016, 1586.1555555555556, A
571186, 1586.6277777777777, +
571584, 1587.7333333333333, N
571684, 1588.0111111111112, x
571923, 1588.675, N
572348, 1589.8555555555556, N
572543, 1590.3972222222221, a
573050, 1591.8055555555557, N
573143, 1592.0638888888889, x
573801, 1593.8916666666667, N
573990, 1594.4166666666667, a
574487, 1595.7972222222222, N
574742, 1596.5055555555555, +
574802, 1596.6722222222222, N
574988, 1597.1888888888889, N
575137, 1597.6027777777779, N
575349, 1598.1916666666666, N
575525, 1598.6805555555557, N
575699, 1599.1638888888888, N
575857, 1599.6027777777779, N
576046, 1600.1277777777777, N
576336, 1600.9333333333334, N
576541, 1601.5027777777777, N
576694, 1601.9277777777777, N
576908, 1602.5222222222221, N
577079, 1602.9972222222223, N
577278, 1603.55, N
577571, 1604.3638888888888, N
577868, 1605.1888888888889, N
578082, 1605.7833333333333, N
578253, 1606.2583333333334, N
578454, 1606.8166666666666, N
578697, 1607.4916666666666, N
578964, 1608.2333333333333, N
579144, 1608.7333333333333, N
579400, 1609.4444444444443, N
579635, 1610.0972222222222, N
579959, 1610.9972222222223, N
580157, 1611.5472222222222, N
580368, 1612.1333333333334, N
580545, 1612.625, N
580711, 1613.0861111111112, N
580944, 1613.7333333333333, N
581160, 1614.3333333333333, N
581361, 1614.8916666666667, N
581518, 1615.3277777777778, N
581659, 1615.7194444444444, N
581813, 1616.1472222222221, N
581965, 1616.5694444444443, N
582100, 1616.9444444444443, N
582249, 1617.3583333333333, N
582529, 1618.1361111111112, N
582712, 1618.6444444444444, N
583123, 1619.786111111111, N
583362, 1620.45, N
583555, 1620.986111111111, N
583736, 1621.4888888888888, N
583915, 1621.986111111111, N
584224, 1622.8444444444444, N
584458, 1623.4944444444445, N
584719, 1624.2194444444444, N
584970, 1624.9166666666667, N
585211, 1625.5861111111112, N
585514, 1626.4277777777777, N
585694, 1626.9277777777777, N
585869, 1627.4138888888888, N
586295, 1628.5972222222222, N
586576, 1629.3777777777777, N
586838, 1630.1055555555556, N
587075, 1630.763888888889, N
587360, 1631.5555555555557, N
587517, 1631.9916666666666, N
587651, 1632.3638888888888, N
587827, 1632.8527777777779, N
588036, 1633.4333333333334, N
588295, 1634.1527777777778, N
588534, 1634.8166666666666, N
588798, 1635.55, N
589008, 1636.1333333333334, N
589283, 1636.8972222222221, N
589478, 1637.4388888888889, N
589814, 1638.3722222222223, N
590000, 1638.888888888889, N
590253, 1639.5916666666667, N
590522, 1640.338888888889, N
590773, 1641.036111111111, N
590995, 1641.6527777777778, N
591260, 1642.388888888889, N
591425, 1642.8472222222222, N
591623, 1643.3972222222221, N
591919, 1644.2194444444444, N
592144, 1644.8444444444444, N
592367, 1645.463888888889, N
592654, 1646.2611111111112, N
592921, 1647.0027777777777, N
593238, 1647.8833333333334, N
593399, 1648.3305555555555, N
593683, 1649.1194444444445, N
593947, 1649.8527777777779, N
594162, 1650.45, N
594421, 1651.1694444444445, N
594585, 1651.625, N
594847, 1652.3527777777779, N
595092, 1653.0333333333333, N
595351, 1653.7527777777777, N
595565, 1654.3472222222222, N
595853, 1655.1472222222221, N
596034, 1655.65, N
596348, 1656.5222222222221, N
596563, 1657.1194444444445, N
596851, 1657.9194444444445, N
597068, 1658.5222222222221, N
597326, 1659.2388888888888, N
597581, 1659.9472222222223, N
597822, 1660.6166666666666, N
598018, 1661.161111111111, N
598240, 1661.7777777777778, N
598456, 1662.3777777777777, N
598758, 1663.2166666666667, N
599023, 1663.9527777777778, N
599282, 1664.6722222222222, N
599443, 1665.1194444444445, N
599665, 1665.736111111111, N
599825, 1666.1805555555557, N
600116, 1666.9888888888888, N
600371, 1667.6972222222223, N
600563, 1668.2305555555556, N
600872, 1669.088888888889, N
601127, 1669.7972222222222, N
601423, 1670.6194444444445, N
601709, 1671.4138888888888, N
601923, 1672.0083333333334, N
602182, 1672.7277777777779, N
602370, 1673.25, N
602590, 1673.861111111111, N
602766, 1674.35, N
602915, 1674.763888888889, N
603140, 1675.388888888889, N
603403, 1676.1194444444445, N
603669, 1676.8583333333333, N
603911, 1677.5305555555556, N
604096, 1678.0444444444445, N
604360, 1678.7777777777778, N
604530, 1679.25, N
604764, 1679.9, N
604995, 1680.5416666666667, N
605234, 1681.2055555555555, N
605478, 1681.8833333333334, N
605715, 1682.5416666666667, N
605974, 1683.2611111111112, N
606196, 1683.8777777777777, N
606428, 1684.5222222222221, N
606634, 1685.0944444444444, N
606868, 1685.7444444444445, N
607020, 1686.1666666666667, a
607198, 1686.661111111111, N
607417, 1687.2694444444444, N
607560, 1687.6666666666667, a
607794, 1688.3166666666666, N
608070, 1689.0833333333333, N
608312, 1689.7555555555555, N
608552, 1690.4222222222222, N
608865, 1691.2916666666667, N
609089, 1691.9138888888888, N
609339, 1692.6083333333333, N
609561, 1693.225, N
609830, 1693.9722222222222, N
610137, 1694.825, N
610404, 1695.5666666666666, N
610565, 1696.013888888889, N
610811, 1696.6972222222223, N
611033, 1697.3138888888889, N
611316, 1698.1, N
611597, 1698.8805555555555, N
611832, 1699.5333333333333, N
612135, 1700.375, N
612401, 1701.1138888888888, N
612718, 1701.9944444444445, N
612980, 1702.7222222222222, N
613186, 1703.2944444444445, N
613390, 1703.861111111111, N
613578, 1704.3833333333334, N
613793, 1704.9805555555556, N
614110, 1705.861111111111, N
614274, 1706.3166666666666, N
614517, 1706.9916666666666, N
614734, 1707.5944444444444, N
614944, 1708.1777777777777, N
615121, 1708.6694444444445, N
615257, 1709.0472222222222, a
615518, 1709.7722222222221, N
615798, 1710.55, N
615979, 1711.0527777777777, N
616224, 1711.7333333333333, N
616469, 1712.4138888888888, N
616725, 1713.125, N
616965, 1713.7916666666667, N
617135, 1714.263888888889, N
617443, 1715.1194444444445, N
617662, 1715.7277777777779, N
617951, 1716.5305555555556, N
618146, 1717.0722222222223, N
618305, 1717.513888888889, N
618575, 1718.263888888889, N
618816, 1718.9333333333334, N
619015, 1719.486111111111, N
619221, 1720.0583333333334, N
619444, 1720.6777777777777, N
619680, 1721.3333333333333, N
619858, 1721.8277777777778, N
620051, 1722.3638888888888, N
620226, 1722.85, N
620464, 1723.5111111111112, N
620739, 1724.275, N
620973, 1724.925, N
621242, 1725.6722222222222, N
621401, 1726.1138888888888, N
621626, 1726.7388888888888, N
621878, 1727.4388888888889, N
622143, 1728.175, N
622408, 1728.911111111111, N
622632, 1729.5333333333333, N
622849, 1730.1361111111112, N
623042, 1730.6722222222222, N
623293, 1731.3694444444445, N
623460, 1731.8333333333333, N
623679, 1732.4416666666666, N
623912, 1733.088888888889, N
624146, 1733.7388888888888, N
624350, 1734.3055555555557, N
624580, 1734.9444444444443, N
624829, 1735.6361111111112, N
625128, 1736.4666666666667, N
625473, 1737.425, N
625718, 1738.1055555555556, N
625928, 1738.6888888888889, N
626181, 1739.3916666666667, N
626424, 1740.0666666666666, N
626587, 1740.5194444444444, N
626829, 1741.1916666666666, N
627023, 1741.7305555555556, N
627197, 1742.213888888889, N
627460, 1742.9444444444443, N
627708, 1743.6333333333334, N
627880, 1744.111111111111, N
628312, 1745.3111111111111, N
628530, 1745.9166666666667, N
628701, 1746.3916666666667, N
628905, 1746.9583333333333, N
629130, 1747.5833333333333, N
629324, 1748.1222222222223, N
629624, 1748.9555555555555, N
629796, 1749.4333333333334, N
630031, 1750.0861111111112, N
630291, 1750.8083333333334, N
630459, 1751.275, N
630733, 1752.036111111111, N
630954, 1752.65, N
631221, 1753.3916666666667, N
631391, 1753.8638888888888, N
631556, 1754.3222222222223, N
631814, 1755.0388888888888, N
632076, 1755.7666666666667, N
632361, 1756.5583333333334, N
632617, 1757.2694444444444, N
632776, 1757.7111111111112, N
633008, 1758.3555555555556, N
633285, 1759.125, N
633503, 1759.7305555555556, N
633736, 1760.3777777777777, N
634015, 1761.1527777777778, N
634386, 1762.1833333333334, N
634669, 1762.9694444444444, N
634922, 1763.6722222222222, N
635208, 1764.4666666666667, N
635493, 1765.2583333333334, N
635666, 1765.7388888888888, N
635838, 1766.2166666666667, N
636101, 1766.9472222222223, N
636350, 1767.638888888889, N
636652, 1768.4777777777779, N
636907, 1769.1861111111111, N
637281, 1770.225, N
637523, 1770.8972222222221, N
637694, 1771.3722222222223, N
637877, 1771.8805555555555, N
638103, 1772.5083333333334, N
638295, 1773.0416666666667, N
638532, 1773.7, N
638710, 1774.1944444444443, N
638929, 1774.8027777777777, N
639138, 1775.3833333333334, N
639365, 1776.013888888889, N
639629, 1776.7472222222223, N
639845, 1777.3472222222222, N
639996, 1777.7666666666667, N
640259, 1778.4972222222223, N
640522, 1779.2277777777779, N
640791, 1779.975, N
641018, 1780.6055555555556, N
641205, 1781.125, N
641542, 1782.0611111111111, N
641821, 1782.8361111111112, N
642037, 1783.4361111111111, N
642306, 1784.1833333333334, N
642495, 1784.7083333333333, N
642734, 1785.3722222222223, N
642969, 1786.025, N
643236, 1786.7666666666667, N
643411, 1787.2527777777777, +
644594, 1790.5388888888888, j
645177, 1792.1583333333333, N
645802, 1793.8944444444444, j
646051, 1794.5861111111112, N
646257, 1795.1583333333333, +
646519, 1795.8861111111112, N
646690, 1796.361111111111, a
647249, 1797.9138888888888, N
647321, 1798.1138888888888, x
647965, 1799.9027777777778, N
648419, 1801.1638888888888, N
648594, 1801.65, a
649104, 1803.0666666666666, N
649181, 1803.2805555555556, x
649800, 1805.0, N
