183, 0.5083333333333333, +
348, 0.9666666666666667, N
742, 2.061111111111111, N
1155, 3.2083333333333335, N
1576, 4.377777777777778, N
1980, 5.5, N
2365, 6.569444444444445, N
2757, 7.658333333333333, N
3167, 8.797222222222222, N
3589, 9.969444444444445, N
4006, 11.127777777777778, N
4400, 12.222222222222221, N
4799, 13.330555555555556, N
5200, 14.444444444444445, N
5613, 15.591666666666667, N
6015, 16.708333333333332, N
6406, 17.794444444444444, N
6798, 18.883333333333333, N
7191, 19.975, N
7607, 21.130555555555556, N
8041, 22.336111111111112, N
8461, 23.502777777777776, N
8857, 24.602777777777778, N
9260, 25.72222222222222, N
9677, 26.880555555555556, N
10109, 28.080555555555556, N
10346, 28.738888888888887, V
10900, 30.27777777777778, N
11290, 31.36111111111111, N
11681, 32.44722222222222, N
12088, 33.577777777777776, N
12496, 34.71111111111111, N
12886, 35.794444444444444, N
13279, 36.88611111111111, N
13675, 37.986111111111114, N
14095, 39.15277777777778, N
14524, 40.34444444444444, N
14949, 41.525, N
15353, 42.647222222222226, N
15756, 43.766666666666666, N
16176, 44.93333333333333, N
16609, 46.13611111111111, N
17023, 47.28611111111111, N
17409, 48.358333333333334, N
17792, 49.422222222222224, N
18194, 50.53888888888889, N
18612, 51.7, N
19006, 52.794444444444444, N
19400, 53.888888888888886, N
19789, 54.96944444444444, N
20191, 56.08611111111111, N
20610, 57.25, N
21035, 58.43055555555556, N
21460, 59.611111111111114, N
21859, 60.71944444444444, N
22256, 61.82222222222222, N
22681, 63.00277777777778, N
23109, 64.19166666666666, N
23529, 65.35833333333333, N
23929, 66.46944444444445, N
24330, 67.58333333333333, N
24756, 68.76666666666667, N
25181, 69.94722222222222, N
25591, 71.08611111111111, N
25984, 72.17777777777778, N
26374, 73.2611111111111, N
26778, 74.38333333333334, N
27200, 75.55555555555556, N
27617, 76.71388888888889, N
28030, 77.86111111111111, N
28424, 78.95555555555555, N
28823, 80.06388888888888, N
29245, 81.23611111111111, N
29676, 82.43333333333334, N
30091, 83.58611111111111, N
30489, 84.69166666666666, N
30886, 85.79444444444445, N
31326, 87.01666666666667, N
31753, 88.20277777777778, N
32149, 89.30277777777778, N
32533, 90.36944444444444, N
32917, 91.43611111111112, N
33307, 92.51944444444445, N
33709, 93.6361111111111, N
34106, 94.7388888888889, N
34503, 95.84166666666667, N
34889, 96.91388888888889, N
35278, 97.99444444444444, N
35691, 99.14166666666667, N
36112, 100.31111111111112, N
36524, 101.45555555555555, N
36909, 102.525, N
37292, 103.58888888888889, N
37701, 104.725, N
38116, 105.87777777777778, N
38523, 107.00833333333334, N
38924, 108.12222222222222, N
39316, 109.21111111111111, N
39729, 110.35833333333333, N
40155, 111.54166666666667, N
40572, 112.7, N
40978, 113.82777777777778, N
41369, 114.91388888888889, N
41758, 115.99444444444444, N
42167, 117.13055555555556, N
42581, 118.28055555555555, N
42994, 119.42777777777778, N
43386, 120.51666666666667, N
43778, 121.60555555555555, N
44189, 122.74722222222222, N
44617, 123.93611111111112, N
45030, 125.08333333333333, N
45425, 126.18055555555556, N
45819, 127.275, N
46228, 128.4111111111111, N
46659, 129.60833333333332, N
47079, 130.775, N
47489, 131.9138888888889, N
47890, 133.02777777777777, N
48294, 134.15, N
48709, 135.30277777777778, N
49133, 136.48055555555555, N
49541, 137.61388888888888, N
49936, 138.7111111111111, N
50327, 139.79722222222222, N
50734, 140.92777777777778, N
51165, 142.125, N
51578, 143.2722222222222, N
51968, 144.35555555555555, N
52360, 145.44444444444446, N
52771, 146.5861111111111, N
53208, 147.8, N
53635, 148.98611111111111, N
54042, 150.11666666666667, N
54455, 151.26388888888889, N
54874, 152.42777777777778, N
55302, 153.61666666666667, N
55725, 154.79166666666666, N
56124, 155.9, N
56517, 156.99166666666667, N
56908, 158.07777777777778, N
57318, 159.21666666666667, N
57742, 160.39444444444445, N
58146, 161.51666666666668, N
58534, 162.59444444444443, N
58932, 163.7, N
59354, 164.87222222222223, N
59788, 166.07777777777778, N
60206, 167.23888888888888, N
60597, 168.325, N
60997, 169.4361111111111, N
61405, 170.56944444444446, N
61826, 171.73888888888888, N
62243, 172.8972222222222, N
62645, 174.01388888888889, N
63045, 175.125, N
63452, 176.25555555555556, N
63872, 177.42222222222222, N
64298, 178.60555555555555, N
64703, 179.73055555555555, N
65087, 180.79722222222222, N
65471, 181.86388888888888, N
65878, 182.99444444444444, N
66307, 184.1861111111111, N
66714, 185.31666666666666, N
67102, 186.39444444444445, N
67499, 187.49722222222223, N
67924, 188.67777777777778, N
68354, 189.87222222222223, N
68771, 191.03055555555557, N
69170, 192.13888888888889, N
69568, 193.24444444444444, N
69980, 194.38888888888889, N
70400, 195.55555555555554, N
70819, 196.71944444444443, N
71228, 197.85555555555555, N
71615, 198.93055555555554, N
72013, 200.0361111111111, N
72431, 201.19722222222222, N
72861, 202.39166666666668, N
73275, 203.54166666666666, N
73669, 204.63611111111112, N
74070, 205.75, N
74508, 206.96666666666667, N
74943, 208.175, N
75365, 209.34722222222223, N
75768, 210.46666666666667, N
76177, 211.6027777777778, N
76605, 212.79166666666666, N
77025, 213.95833333333334, N
77445, 215.125, N
77834, 216.20555555555555, N
78218, 217.2722222222222, N
78617, 218.38055555555556, N
79042, 219.5611111111111, N
79463, 220.73055555555555, N
79864, 221.84444444444443, N
80247, 222.90833333333333, N
80644, 224.01111111111112, N
81064, 225.17777777777778, N
81479, 226.33055555555555, N
81883, 227.45277777777778, N
82108, 228.07777777777778, V
82653, 229.59166666666667, N
83064, 230.73333333333332, N
83479, 231.88611111111112, N
83888, 233.0222222222222, N
84285, 234.125, N
84675, 235.20833333333334, N
85081, 236.3361111111111, N
85506, 237.51666666666668, N
85931, 238.69722222222222, N
86337, 239.825, N
86730, 240.91666666666666, N
87123, 242.00833333333333, N
87554, 243.20555555555555, N
87976, 244.37777777777777, N
88210, 245.02777777777777, V
88750, 246.52777777777777, N
89131, 247.5861111111111, N
89538, 248.71666666666667, N
89935, 249.81944444444446, N
90332, 250.92222222222222, N
90728, 252.0222222222222, N
91115, 253.09722222222223, N
91516, 254.2111111111111, N
91940, 255.38888888888889, N
92364, 256.56666666666666, N
92777, 257.7138888888889, N
93170, 258.80555555555554, N
93555, 259.875, N
93969, 261.025, N
94398, 262.21666666666664, N
94808, 263.35555555555555, N
95204, 264.4555555555556, N
95593, 265.5361111111111, N
95825, 266.18055555555554, V
96399, 267.775, N
96801, 268.89166666666665, N
97180, 269.94444444444446, N
97558, 270.99444444444447, N
97946, 272.0722222222222, N
98353, 273.2027777777778, N
98761, 274.3361111111111, N
99168, 275.46666666666664, N
99567, 276.575, N
99958, 277.6611111111111, N
100366, 278.7944444444444, N
100796, 279.9888888888889, N
101218, 281.1611111111111, N
101611, 282.2527777777778, N
102010, 283.3611111111111, N
102422, 284.50555555555553, N
102858, 285.71666666666664, N
103281, 286.89166666666665, N
103681, 288.0027777777778, N
104083, 289.11944444444447, N
104491, 290.2527777777778, N
104911, 291.4194444444444, N
105333, 292.59166666666664, N
105736, 293.7111111111111, N
106134, 294.81666666666666, N
106528, 295.9111111111111, N
106948, 297.0777777777778, N
107382, 298.28333333333336, N
107800, 299.44444444444446, N
108194, 300.5388888888889, N
108587, 301.63055555555553, N
108999, 302.775, N
109420, 303.94444444444446, N
109826, 305.0722222222222, N
110205, 306.125, N
110590, 307.19444444444446, N
111003, 308.34166666666664, N
111424, 309.5111111111111, N
111830, 310.6388888888889, N
112235, 311.7638888888889, N
112637, 312.88055555555553, N
113048, 314.02222222222224, N
113476, 315.2111111111111, N
113912, 316.4222222222222, N
114333, 317.59166666666664, N
114733, 318.7027777777778, N
115136, 319.8222222222222, N
115560, 321.0, N
115993, 322.2027777777778, N
116406, 323.35, N
116802, 324.45, N
117204, 325.56666666666666, N
117635, 326.7638888888889, N
118063, 327.9527777777778, N
118487, 329.13055555555553, N
118896, 330.26666666666665, N
119305, 331.40277777777777, N
119730, 332.5833333333333, N
120163, 333.7861111111111, N
120416, 334.4888888888889, V
121006, 336.1277777777778, N
121406, 337.2388888888889, N
121819, 338.3861111111111, N
122250, 339.5833333333333, N
122679, 340.775, N
123086, 341.90555555555557, N
123480, 343.0, N
123895, 344.15277777777777, N
124327, 345.35277777777776, N
124746, 346.51666666666665, N
125155, 347.65277777777777, N
125547, 348.7416666666667, N
125949, 349.85833333333335, N
126366, 351.01666666666665, N
126784, 352.1777777777778, N
127203, 353.34166666666664, N
127600, 354.44444444444446, N
127992, 355.53333333333336, N
128406, 356.68333333333334, N
128834, 357.8722222222222, N
129258, 359.05, N
129652, 360.14444444444445, N
130035, 361.2083333333333, N
130440, 362.3333333333333, N
130863, 363.5083333333333, N
131273, 364.64722222222224, N
131673, 365.7583333333333, N
132061, 366.8361111111111, N
132469, 367.96944444444443, N
132902, 369.1722222222222, N
133328, 370.35555555555555, N
133751, 371.53055555555557, N
134153, 372.64722222222224, N
134553, 373.7583333333333, N
134974, 374.9277777777778, N
135403, 376.11944444444447, N
135820, 377.27777777777777, N
136212, 378.3666666666667, N
136592, 379.4222222222222, N
137001, 380.55833333333334, N
137412, 381.7, N
137813, 382.81388888888887, N
138196, 383.8777777777778, N
138580, 384.94444444444446, N
138984, 386.06666666666666, N
139419, 387.275, N
139851, 388.475, N
140275, 389.65277777777777, N
140690, 390.80555555555554, N
141097, 391.93611111111113, N
141518, 393.10555555555555, N
141944, 394.2888888888889, N
142361, 395.4472222222222, N
142757, 396.5472222222222, N
143148, 397.6333333333333, N
143557, 398.76944444444445, N
143987, 399.9638888888889, N
144401, 401.1138888888889, N
144797, 402.2138888888889, N
145068, 402.96666666666664, A
145488, 404.1333333333333, N
145937, 405.38055555555553, N
146381, 406.6138888888889, N
146805, 407.7916666666667, N
147235, 408.9861111111111, N
147664, 410.1777777777778, N
148097, 411.38055555555553, N
148527, 412.575, N
148948, 413.74444444444447, N
149335, 414.81944444444446, N
149703, 415.84166666666664, N
150083, 416.89722222222224, N
150481, 418.0027777777778, N
150887, 419.13055555555553, N
151282, 420.22777777777776, N
151679, 421.3305555555556, N
152090, 422.47222222222223, N
152528, 423.68888888888887, N
152952, 424.8666666666667, N
153352, 425.97777777777776, N
153750, 427.0833333333333, N
154159, 428.21944444444443, N
154583, 429.39722222222224, N
155008, 430.5777777777778, N
155416, 431.7111111111111, N
155637, 432.325, V
156200, 433.8888888888889, N
156612, 435.03333333333336, N
157020, 436.1666666666667, N
157424, 437.2888888888889, N
157805, 438.34722222222223, N
158187, 439.40833333333336, N
158588, 440.52222222222224, N
159012, 441.7, N
159430, 442.8611111111111, N
159827, 443.9638888888889, N
160222, 445.06111111111113, N
160635, 446.2083333333333, N
161060, 447.3888888888889, N
161477, 448.5472222222222, N
161884, 449.6777777777778, N
162279, 450.775, N
162677, 451.88055555555553, N
163092, 453.03333333333336, N
163515, 454.2083333333333, N
163927, 455.35277777777776, N
164318, 456.43888888888887, N
164707, 457.51944444444445, N
165118, 458.6611111111111, N
165549, 459.85833333333335, N
165976, 461.0444444444444, N
166377, 462.15833333333336, N
166775, 463.2638888888889, N
167198, 464.43888888888887, N
167631, 465.64166666666665, N
168045, 466.7916666666667, N
168440, 467.8888888888889, N
168828, 468.96666666666664, N
169224, 470.06666666666666, N
169633, 471.2027777777778, N
170038, 472.3277777777778, N
170290, 473.02777777777777, V
170814, 474.48333333333335, N
171185, 475.5138888888889, N
171569, 476.5805555555556, N
171957, 477.65833333333336, N
172345, 478.7361111111111, N
172721, 479.78055555555557, N
173089, 480.8027777777778, N
173470, 481.8611111111111, N
173879, 482.9972222222222, N
174282, 484.1166666666667, N
174683, 485.23055555555555, N
175064, 486.2888888888889, N
175450, 487.3611111111111, N
175847, 488.4638888888889, N
176257, 489.60277777777776, N
176670, 490.75, N
177075, 491.875, N
177464, 492.9555555555556, N
177859, 494.0527777777778, N
178275, 495.2083333333333, N
178705, 496.40277777777777, N
179119, 497.5527777777778, N
179514, 498.65, N
179909, 499.7472222222222, N
180331, 500.9194444444444, N
180752, 502.0888888888889, N
181153, 503.2027777777778, N
181542, 504.28333333333336, N
181932, 505.3666666666667, N
182341, 506.5027777777778, N
182752, 507.64444444444445, N
183163, 508.7861111111111, N
183569, 509.9138888888889, N
183961, 511.0027777777778, N
184355, 512.0972222222222, N
184778, 513.2722222222222, N
185202, 514.45, N
185620, 515.6111111111111, N
186013, 516.7027777777778, N
186409, 517.8027777777778, N
186837, 518.9916666666667, N
187264, 520.1777777777778, N
187673, 521.3138888888889, N
188068, 522.4111111111112, N
188457, 523.4916666666667, N
188864, 524.6222222222223, N
189271, 525.7527777777777, N
189676, 526.8777777777777, N
190075, 527.9861111111111, N
190459, 529.0527777777778, N
190849, 530.1361111111111, N
191262, 531.2833333333333, N
191684, 532.4555555555555, N
192094, 533.5944444444444, N
192488, 534.6888888888889, N
192874, 535.7611111111111, N
193280, 536.8888888888889, N
193700, 538.0555555555555, N
194105, 539.1805555555555, N
194488, 540.2444444444444, N
194873, 541.3138888888889, N
195271, 542.4194444444445, N
195693, 543.5916666666667, N
196107, 544.7416666666667, N
196507, 545.8527777777778, N
196905, 546.9583333333334, N
197303, 548.0638888888889, N
197712, 549.2, N
198129, 550.3583333333333, N
198533, 551.4805555555556, N
198926, 552.5722222222222, N
199312, 553.6444444444444, N
199699, 554.7194444444444, N
200107, 555.8527777777778, N
200498, 556.9388888888889, N
200858, 557.9388888888889, N
201216, 558.9333333333333, N
201578, 559.9388888888889, N
201959, 560.9972222222223, N
202345, 562.0694444444445, N
202714, 563.0944444444444, N
203065, 564.0694444444445, N
203428, 565.0777777777778, N
203804, 566.1222222222223, N
204210, 567.25, N
204625, 568.4027777777778, N
205029, 569.525, N
205422, 570.6166666666667, N
205814, 571.7055555555555, N
206216, 572.8222222222222, N
206639, 573.9972222222223, N
207058, 575.1611111111112, N
207448, 576.2444444444444, N
207835, 577.3194444444445, N
208228, 578.4111111111112, N
208628, 579.5222222222222, N
209011, 580.5861111111111, N
209382, 581.6166666666667, N
209742, 582.6166666666667, N
210111, 583.6416666666667, N
210485, 584.6805555555555, N
210859, 585.7194444444444, N
211224, 586.7333333333333, N
211570, 587.6944444444445, N
211906, 588.6277777777777, N
212238, 589.55, N
212583, 590.5083333333333, N
212931, 591.475, N
213280, 592.4444444444445, N
213618, 593.3833333333333, N
213941, 594.2805555555556, N
214260, 595.1666666666666, N
214592, 596.0888888888888, N
214938, 597.05, N
215294, 598.0388888888889, N
215639, 598.9972222222223, N
215969, 599.9138888888889, N
216298, 600.8277777777778, N
216632, 601.7555555555556, N
216978, 602.7166666666667, N
217314, 603.65, N
217646, 604.5722222222222, N
217973, 605.4805555555556, N
218296, 606.3777777777777, N
218534, 607.0388888888889, V
218931, 608.1416666666667, N
219268, 609.0777777777778, N
219607, 610.0194444444444, N
219945, 610.9583333333334, N
220266, 611.85, N
220575, 612.7083333333334, N
220891, 613.5861111111111, N
221224, 614.5111111111111, N
221564, 615.4555555555555, N
221906, 616.4055555555556, N
222234, 617.3166666666667, N
222462, 617.95, V
222870, 619.0833333333334, N
223211, 620.0305555555556, N
223550, 620.9722222222222, N
223893, 621.925, N
224232, 622.8666666666667, N
224471, 623.5305555555556, V
224883, 624.675, N
225220, 625.6111111111111, N
225559, 626.5527777777778, N
225907, 627.5194444444444, N
226256, 628.4888888888889, N
226507, 629.1861111111111, V
226929, 630.3583333333333, N
227254, 631.2611111111111, N
227584, 632.1777777777778, N
227926, 633.1277777777777, N
228277, 634.1027777777778, N
228542, 634.8388888888888, V
228954, 635.9833333333333, N
229270, 636.8611111111111, N
229595, 637.7638888888889, N
229943, 638.7305555555556, N
230287, 639.6861111111111, N
230622, 640.6166666666667, N
230950, 641.5277777777778, N
231263, 642.3972222222222, N
231577, 643.2694444444444, N
231902, 644.1722222222222, N
232234, 645.0944444444444, N
232477, 645.7694444444444, V
232907, 646.9638888888888, N
233240, 647.8888888888889, N
233554, 648.7611111111111, N
233864, 649.6222222222223, N
234190, 650.5277777777778, N
234525, 651.4583333333334, N
234865, 652.4027777777778, N
235211, 653.3638888888889, N
235532, 654.2555555555556, N
235854, 655.15, N
236181, 656.0583333333333, N
236531, 657.0305555555556, N
236879, 657.9972222222223, N
237217, 658.9361111111111, N
237548, 659.8555555555556, N
237869, 660.7472222222223, N
238193, 661.6472222222222, N
238428, 662.3, V
238872, 663.5333333333333, N
239212, 664.4777777777778, N
239543, 665.3972222222222, N
239867, 666.2972222222222, N
240178, 667.1611111111112, N
240490, 668.0277777777778, N
240814, 668.9277777777778, N
240857, 669.0472222222222, |
241146, 669.85, N
241469, 670.7472222222223, N
241789, 671.6361111111111, N
242094, 672.4833333333333, N
242402, 673.3388888888888, N
242724, 674.2333333333333, N
243058, 675.1611111111112, N
243400, 676.1111111111111, N
243727, 677.0194444444444, N
244039, 677.8861111111111, N
244258, 678.4944444444444, V
244657, 679.6027777777778, N
244990, 680.5277777777778, N
245330, 681.4722222222222, N
245661, 682.3916666666667, N
245979, 683.275, N
246297, 684.1583333333333, N
246615, 685.0416666666666, N
246938, 685.9388888888889, N
247270, 686.8611111111111, N
247619, 687.8305555555555, N
247956, 688.7666666666667, N
248295, 689.7083333333334, N
248629, 690.6361111111111, N
248952, 691.5333333333333, N
249297, 692.4916666666667, N
249656, 693.4888888888889, N
250040, 694.5555555555555, N
250379, 695.4972222222223, N
250718, 696.4388888888889, N
251060, 697.3888888888889, N
251432, 698.4222222222222, N
251808, 699.4666666666667, N
252185, 700.5138888888889, N
252551, 701.5305555555556, N
252914, 702.5388888888889, N
253276, 703.5444444444445, N
253661, 704.6138888888889, N
254044, 705.6777777777778, N
254433, 706.7583333333333, N
254801, 707.7805555555556, N
255176, 708.8222222222222, N
255540, 709.8333333333334, N
255927, 710.9083333333333, N
256329, 712.025, N
256722, 713.1166666666667, N
257094, 714.15, N
257464, 715.1777777777778, N
257845, 716.2361111111111, N
258249, 717.3583333333333, N
258654, 718.4833333333333, N
259039, 719.5527777777778, N
259417, 720.6027777777778, N
259793, 721.6472222222222, N
260193, 722.7583333333333, N
260588, 723.8555555555556, N
260984, 724.9555555555555, N
261365, 726.0138888888889, N
261746, 727.0722222222222, N
262129, 728.1361111111111, N
262521, 729.225, N
262933, 730.3694444444444, N
263318, 731.4388888888889, N
263686, 732.4611111111111, N
264053, 733.4805555555556, N
264436, 734.5444444444445, N
264838, 735.6611111111112, N
265016, 736.1555555555556, A
265159, 736.5527777777778, A
265365, 737.125, A
265832, 738.4222222222222, N
266196, 739.4333333333333, N
266575, 740.4861111111111, N
266954, 741.5388888888889, N
267329, 742.5805555555555, N
267711, 743.6416666666667, N
267880, 744.1111111111111, a
268314, 745.3166666666667, N
268688, 746.3555555555556, N
268865, 746.8472222222222, A
269330, 748.1388888888889, N
269706, 749.1833333333333, N
269877, 749.6583333333333, A
270305, 750.8472222222222, N
270666, 751.85, N
271039, 752.8861111111111, N
271292, 753.5888888888888, V
271802, 755.0055555555556, N
272165, 756.0138888888889, N
272529, 757.025, N
272916, 758.1, N
273099, 758.6083333333333, A
273572, 759.9222222222222, N
273968, 761.0222222222222, N
274139, 761.4972222222223, A
274592, 762.7555555555556, N
274977, 763.825, N
275152, 764.3111111111111, a
275443, 765.1194444444444, V
276017, 766.7138888888888, N
276403, 767.7861111111112, N
276780, 768.8333333333334, N
276949, 769.3027777777778, a
277408, 770.5777777777778, N
277824, 771.7333333333333, N
278232, 772.8666666666667, N
278406, 773.35, A
278854, 774.5944444444444, N
279247, 775.6861111111111, N
279652, 776.8111111111111, N
280059, 777.9416666666667, N
280458, 779.05, N
280634, 779.5388888888889, A
281094, 780.8166666666667, N
281481, 781.8916666666667, N
281887, 783.0194444444444, N
282070, 783.5277777777778, A
282547, 784.8527777777778, N
282944, 785.9555555555555, N
283115, 786.4305555555555, A
283562, 787.6722222222222, N
283958, 788.7722222222222, N
284357, 789.8805555555556, N
284758, 790.9944444444444, N
285130, 792.0277777777778, N
285496, 793.0444444444445, N
285872, 794.0888888888888, N
286281, 795.225, N
286685, 796.3472222222222, N
287075, 797.4305555555555, N
287452, 798.4777777777778, N
287837, 799.5472222222222, N
288238, 800.6611111111112, N
288644, 801.7888888888889, N
288823, 802.2861111111112, A
289299, 803.6083333333333, N
289690, 804.6944444444445, N
290074, 805.7611111111111, N
290254, 806.2611111111111, A
290743, 807.6194444444444, N
291144, 808.7333333333333, N
291538, 809.8277777777778, N
291907, 810.8527777777778, N
292282, 811.8944444444444, N
292686, 813.0166666666667, N
293087, 814.1305555555556, N
293478, 815.2166666666667, N
293766, 816.0166666666667, |
293853, 816.2583333333333, N
294221, 817.2805555555556, N
294613, 818.3694444444444, N
295022, 819.5055555555556, N
295417, 820.6027777777778, N
295806, 821.6833333333333, N
296184, 822.7333333333333, N
296562, 823.7833333333333, N
296953, 824.8694444444444, N
297347, 825.9638888888888, N
297748, 827.0777777777778, N
298133, 828.1472222222222, N
298496, 829.1555555555556, N
298877, 830.2138888888888, N
299280, 831.3333333333334, N
299687, 832.4638888888888, N
300065, 833.5138888888889, N
300436, 834.5444444444445, N
300812, 835.5888888888888, N
301203, 836.675, N
301618, 837.8277777777778, N
302010, 838.9166666666666, N
302396, 839.9888888888889, N
302570, 840.4722222222222, A
303018, 841.7166666666667, N
303417, 842.825, N
303813, 843.925, N
304209, 845.025, N
304589, 846.0805555555555, N
304958, 847.1055555555556, N
305336, 848.1555555555556, N
305741, 849.2805555555556, N
306152, 850.4222222222222, N
306547, 851.5194444444444, N
306923, 852.5638888888889, N
307294, 853.5944444444444, N
307687, 854.6861111111111, N
308093, 855.8138888888889, N
308484, 856.9, N
308852, 857.9222222222222, N
309231, 858.975, N
309605, 860.0138888888889, N
310011, 861.1416666666667, N
310417, 862.2694444444444, N
310814, 863.3722222222223, N
311200, 864.4444444444445, N
311580, 865.5, N
311968, 866.5777777777778, N
312381, 867.725, N
312792, 868.8666666666667, N
313181, 869.9472222222222, N
313564, 871.0111111111111, N
313958, 872.1055555555556, N
314367, 873.2416666666667, N
314782, 874.3944444444444, N
315178, 875.4944444444444, N
315563, 876.5638888888889, N
315950, 877.6388888888889, N
316350, 878.75, N
316757, 879.8805555555556, N
317157, 880.9916666666667, N
317550, 882.0833333333334, N
317921, 883.1138888888889, N
318308, 884.1888888888889, N
318705, 885.2916666666666, N
319118, 886.4388888888889, N
319511, 887.5305555555556, N
319886, 888.5722222222222, N
320270, 889.6388888888889, N
320664, 890.7333333333333, N
321079, 891.8861111111111, N
321475, 892.9861111111111, N
321857, 894.0472222222222, N
322242, 895.1166666666667, N
322631, 896.1972222222222, N
323032, 897.3111111111111, N
323441, 898.4472222222222, N
323845, 899.5694444444445, N
324227, 900.6305555555556, N
324617, 901.7138888888888, N
325013, 902.8138888888889, N
325434, 903.9833333333333, N
325842, 905.1166666666667, N
326234, 906.2055555555555, N
326612, 907.2555555555556, N
327008, 908.3555555555556, N
327419, 909.4972222222223, N
327839, 910.6638888888889, N
328234, 911.7611111111111, N
328616, 912.8222222222222, N
329016, 913.9333333333333, N
329426, 915.0722222222222, N
329838, 916.2166666666667, N
330246, 917.35, N
330628, 918.4111111111112, N
331021, 919.5027777777777, N
331416, 920.6, N
331824, 921.7333333333333, N
332232, 922.8666666666667, N
332616, 923.9333333333333, N
332993, 924.9805555555556, N
333368, 926.0222222222222, N
333762, 927.1166666666667, N
334171, 928.2527777777777, N
334560, 929.3333333333334, N
334941, 930.3916666666667, N
335317, 931.4361111111111, N
335722, 932.5611111111111, N
336129, 933.6916666666667, N
336530, 934.8055555555555, N
336915, 935.875, N
337288, 936.9111111111112, N
337677, 937.9916666666667, N
338076, 939.1, N
338478, 940.2166666666667, N
338877, 941.325, N
339263, 942.3972222222222, N
339639, 943.4416666666667, N
340032, 944.5333333333333, N
340443, 945.675, N
340852, 946.8111111111111, N
341244, 947.9, N
341621, 948.9472222222222, N
342008, 950.0222222222222, N
342438, 951.2166666666667, N
342854, 952.3722222222223, N
343245, 953.4583333333334, N
343629, 954.525, N
344020, 955.6111111111111, N
344431, 956.7527777777777, N
344843, 957.8972222222222, N
345249, 959.025, N
345648, 960.1333333333333, N
346032, 961.2, N
346426, 962.2944444444445, N
346832, 963.4222222222222, N
347244, 964.5666666666667, N
347642, 965.6722222222222, N
348024, 966.7333333333333, N
348410, 967.8055555555555, N
348826, 968.9611111111111, N
349232, 970.0888888888888, N
349626, 971.1833333333333, N
350002, 972.2277777777778, N
350372, 973.2555555555556, N
350754, 974.3166666666667, N
351146, 975.4055555555556, N
351530, 976.4722222222222, N
351910, 977.5277777777778, N
352275, 978.5416666666666, N
352645, 979.5694444444445, N
353023, 980.6194444444444, N
353422, 981.7277777777778, N
353818, 982.8277777777778, N
354207, 983.9083333333333, N
354581, 984.9472222222222, N
354953, 985.9805555555556, N
355364, 987.1222222222223, N
355763, 988.2305555555556, N
356150, 989.3055555555555, N
356523, 990.3416666666667, N
356887, 991.3527777777778, N
357260, 992.3888888888889, N
357652, 993.4777777777778, N
358027, 994.5194444444444, N
358391, 995.5305555555556, N
358760, 996.5555555555555, N
359116, 997.5444444444445, N
359492, 998.5888888888888, N
359897, 999.7138888888888, N
360285, 1000.7916666666666, N
360679, 1001.8861111111111, N
361057, 1002.9361111111111, N
361440, 1004.0, N
361865, 1005.1805555555555, N
362280, 1006.3333333333334, N
362670, 1007.4166666666666, N
363065, 1008.5138888888889, N
363455, 1009.5972222222222, N
363875, 1010.7638888888889, N
364294, 1011.9277777777778, N
364708, 1013.0777777777778, N
365108, 1014.1888888888889, N
365505, 1015.2916666666666, N
365913, 1016.425, N
366328, 1017.5777777777778, N
366748, 1018.7444444444444, N
367159, 1019.8861111111111, N
367542, 1020.95, N
367937, 1022.0472222222222, N
368354, 1023.2055555555555, N
368782, 1024.3944444444444, N
369189, 1025.525, N
369574, 1026.5944444444444, N
369968, 1027.6888888888889, N
370386, 1028.85, N
370803, 1030.0083333333334, N
371219, 1031.1638888888888, N
371622, 1032.2833333333333, N
372017, 1033.3805555555555, N
372424, 1034.5111111111112, N
372843, 1035.675, N
373264, 1036.8444444444444, N
373670, 1037.9722222222222, N
374065, 1039.0694444444443, N
374471, 1040.1972222222223, N
374893, 1041.3694444444445, N
375321, 1042.5583333333334, N
375739, 1043.7194444444444, N
376128, 1044.8, N
376531, 1045.9194444444445, N
376955, 1047.0972222222222, N
377395, 1048.3194444444443, N
377814, 1049.4833333333333, N
378215, 1050.5972222222222, N
378634, 1051.7611111111112, N
379061, 1052.9472222222223, N
379493, 1054.1472222222221, N
379910, 1055.3055555555557, N
380319, 1056.4416666666666, N
380725, 1057.5694444444443, N
381141, 1058.725, N
381577, 1059.9361111111111, N
382004, 1061.1222222222223, N
382411, 1062.2527777777777, N
382811, 1063.3638888888888, N
383221, 1064.5027777777777, N
383660, 1065.7222222222222, N
384096, 1066.9333333333334, N
384502, 1068.0611111111111, N
384910, 1069.1944444444443, N
385338, 1070.3833333333334, N
385779, 1071.6083333333333, N
386214, 1072.8166666666666, N
386628, 1073.9666666666667, N
387042, 1075.1166666666666, N
387461, 1076.2805555555556, N
387899, 1077.4972222222223, N
388338, 1078.7166666666667, N
388757, 1079.8805555555555, N
389151, 1080.975, N
389558, 1082.1055555555556, N
389983, 1083.286111111111, N
390414, 1084.4833333333333, N
390826, 1085.6277777777777, N
391216, 1086.7111111111112, N
391624, 1087.8444444444444, N
392057, 1089.0472222222222, N
392491, 1090.2527777777777, N
392914, 1091.4277777777777, N
393318, 1092.55, N
393732, 1093.7, N
394151, 1094.8638888888888, N
394579, 1096.0527777777777, N
395015, 1097.263888888889, N
395422, 1098.3944444444444, N
395826, 1099.5166666666667, N
396250, 1100.6944444444443, N
396672, 1101.8666666666666, N
397109, 1103.0805555555555, N
397519, 1104.2194444444444, N
397917, 1105.325, N
398353, 1106.536111111111, N
398798, 1107.7722222222221, N
399219, 1108.9416666666666, N
399628, 1110.0777777777778, N
400027, 1111.1861111111111, N
400453, 1112.3694444444445, N
400888, 1113.5777777777778, N
401316, 1114.7666666666667, N
401737, 1115.9361111111111, N
402138, 1117.05, N
402550, 1118.1944444444443, N
402979, 1119.3861111111112, N
403415, 1120.5972222222222, N
403834, 1121.7611111111112, N
404235, 1122.875, N
404414, 1123.3722222222223, A
404938, 1124.8277777777778, N
405138, 1125.3833333333334, a
405286, 1125.7944444444445, a
405663, 1126.8416666666667, N
405848, 1127.3555555555556, A
406333, 1128.7027777777778, N
406521, 1129.225, a
407020, 1130.611111111111, N
407220, 1131.1666666666667, a
407728, 1132.5777777777778, N
407925, 1133.125, a
408068, 1133.5222222222221, a
408421, 1134.5027777777777, N
408602, 1135.0055555555555, A
409092, 1136.3666666666666, N
409291, 1136.9194444444445, a
409437, 1137.325, a
409820, 1138.388888888889, N
410010, 1138.9166666666667, A
410159, 1139.3305555555555, A
410520, 1140.3333333333333, N
410697, 1140.825, A
411192, 1142.2, N
411338, 1142.6055555555556, +
411392, 1142.7555555555555, a
411544, 1143.1777777777777, a
411706, 1143.6277777777777, N
411881, 1144.1138888888888, N
412090, 1144.6944444444443, N
412322, 1145.338888888889, N
412518, 1145.8833333333334, N
412701, 1146.3916666666667, N
412874, 1146.8722222222223, N
413038, 1147.3277777777778, N
413255, 1147.9305555555557, N
413470, 1148.5277777777778, N
413654, 1149.0388888888888, N
413812, 1149.4777777777779, N
414075, 1150.2083333333333, N
414321, 1150.8916666666667, N
414521, 1151.4472222222223, N
414706, 1151.9611111111112, N
414877, 1152.4361111111111, N
415084, 1153.0111111111112, N
415250, 1153.4722222222222, N
415406, 1153.9055555555556, N
415631, 1154.5305555555556, N
415834, 1155.0944444444444, N
416063, 1155.7305555555556, N
416262, 1156.2833333333333, N
416455, 1156.8194444444443, N
416693, 1157.4805555555556, N
416822, 1157.838888888889, +
417155, 1158.763888888889, N
417578, 1159.9388888888889, N
417763, 1160.4527777777778, A
417924, 1160.9, A
418352, 1162.088888888889, N
418540, 1162.611111111111, A
418694, 1163.0388888888888, A
419080, 1164.111111111111, N
419254, 1164.5944444444444, A
419400, 1165.0, A
419787, 1166.075, N
419974, 1166.5944444444444, A
420144, 1167.0666666666666, A
420539, 1168.1638888888888, N
420720, 1168.6666666666667, A
421237, 1170.1027777777779, N
421419, 1170.6083333333333, a
421927, 1172.0194444444444, N
422104, 1172.5111111111112, a
422255, 1172.9305555555557, A
422645, 1174.013888888889, N
422826, 1174.5166666666667, a
422987, 1174.963888888889, A
423356, 1175.9888888888888, N
423479, 1176.3305555555555, +
423532, 1176.4777777777779, N
423682, 1176.8944444444444, N
423947, 1177.6305555555555, N
424143, 1178.175, N
424335, 1178.7083333333333, N
424502, 1179.1722222222222, N
424834, 1180.0944444444444, N
425076, 1180.7666666666667, N
425263, 1181.286111111111, N
425486, 1181.9055555555556, N
425799, 1182.775, N
426006, 1183.35, N
426244, 1184.0111111111112, N
426424, 1184.5111111111112, N
426608, 1185.0222222222221, N
426818, 1185.6055555555556, N
426992, 1186.088888888889, N
427161, 1186.5583333333334, N
427338, 1187.05, N
427508, 1187.5222222222221, N
427677, 1187.9916666666666, N
427876, 1188.5444444444445, N
428070, 1189.0833333333333, N
428389, 1189.9694444444444, N
428583, 1190.5083333333334, N
428808, 1191.1333333333334, N
429017, 1191.713888888889, N
429195, 1192.2083333333333, N
429373, 1192.7027777777778, N
429543, 1193.175, N
429719, 1193.6638888888888, N
429891, 1194.1416666666667, N
430077, 1194.6583333333333, N
430248, 1195.1333333333334, N
430420, 1195.611111111111, N
430593, 1196.0916666666667, N
430764, 1196.5666666666666, N
430952, 1197.088888888889, N
431134, 1197.5944444444444, N
431319, 1198.1083333333333, N
431491, 1198.5861111111112, N
431674, 1199.0944444444444, N
431911, 1199.7527777777777, N
432087, 1200.2416666666666, N
432259, 1200.7194444444444, N
432496, 1201.3777777777777, N
432719, 1201.9972222222223, N
432918, 1202.55, N
433169, 1203.2472222222223, N
433365, 1203.7916666666667, N
433546, 1204.2944444444445, N
433720, 1204.7777777777778, N
433890, 1205.25, N
434049, 1205.6916666666666, N
434212, 1206.1444444444444, N
434378, 1206.6055555555556, N
434541, 1207.0583333333334, N
434701, 1207.5027777777777, N
434922, 1208.1166666666666, N
435143, 1208.7305555555556, N
435316, 1209.2111111111112, N
435491, 1209.6972222222223, N
435662, 1210.1722222222222, N
435839, 1210.6638888888888, N
436026, 1211.1833333333334, N
436193, 1211.6472222222221, N
436356, 1212.1, N
436514, 1212.5388888888888, N
436680, 1213.0, N
436829, 1213.4138888888888, N
436994, 1213.8722222222223, N
437176, 1214.3777777777777, N
437341, 1214.8361111111112, N
437515, 1215.3194444444443, N
437689, 1215.8027777777777, N
437867, 1216.2972222222222, N
438038, 1216.7722222222221, N
438219, 1217.275, N
438388, 1217.7444444444445, N
438618, 1218.3833333333334, N
438798, 1218.8833333333334, N
439023, 1219.5083333333334, N
439243, 1220.1194444444445, N
439414, 1220.5944444444444, N
439593, 1221.0916666666667, N
439762, 1221.5611111111111, N
439934, 1222.0388888888888, N
440108, 1222.5222222222221, N
440286, 1223.0166666666667, N
440454, 1223.4833333333333, N
440662, 1224.0611111111111, N
440816, 1224.4888888888888, N
440982, 1224.95, N
441139, 1225.3861111111112, N
441312, 1225.8666666666666, N
441480, 1226.3333333333333, N
441735, 1227.0416666666667, N
441901, 1227.5027777777777, N
442086, 1228.0166666666667, N
442298, 1228.6055555555556, N
442476, 1229.1, N
442706, 1229.7388888888888, N
442913, 1230.3138888888889, N
443119, 1230.8861111111112, N
443326, 1231.4611111111112, N
443514, 1231.9833333333333, N
443767, 1232.6861111111111, N
443977, 1233.2694444444444, N
444211, 1233.9194444444445, N
444419, 1234.4972222222223, N
444641, 1235.1138888888888, N
444871, 1235.7527777777777, N
445026, 1236.1833333333334, N
445267, 1236.8527777777779, N
445421, 1237.2805555555556, N
445579, 1237.7194444444444, N
445733, 1238.1472222222221, N
445895, 1238.5972222222222, N
446064, 1239.0666666666666, N
446232, 1239.5333333333333, N
446395, 1239.986111111111, N
446574, 1240.4833333333333, N
446735, 1240.9305555555557, N
446967, 1241.575, N
447129, 1242.025, N
447289, 1242.4694444444444, N
447521, 1243.1138888888888, N
447702, 1243.6166666666666, N
447918, 1244.2166666666667, N
448172, 1244.9222222222222, N
448347, 1245.4083333333333, N
448523, 1245.8972222222221, N
448817, 1246.713888888889, N
448986, 1247.1833333333334, N
449143, 1247.6194444444445, N
449295, 1248.0416666666667, N
449449, 1248.4694444444444, N
449604, 1248.9, N
449758, 1249.3277777777778, N
449914, 1249.7611111111112, N
450073, 1250.2027777777778, N
450230, 1250.638888888889, N
450394, 1251.0944444444444, N
450559, 1251.5527777777777, N
450723, 1252.0083333333334, N
450902, 1252.5055555555555, N
451071, 1252.975, N
451224, 1253.4, N
451382, 1253.838888888889, N
451534, 1254.2611111111112, N
451696, 1254.7111111111112, N
451867, 1255.1861111111111, N
452076, 1255.7666666666667, N
452253, 1256.2583333333334, N
452464, 1256.8444444444444, N
452637, 1257.325, N
452807, 1257.7972222222222, N
452974, 1258.2611111111112, N
453134, 1258.7055555555555, N
453293, 1259.1472222222221, N
453452, 1259.588888888889, N
453608, 1260.0222222222221, N
453760, 1260.4444444444443, N
453983, 1261.0638888888889, N
454311, 1261.975, N
454530, 1262.5833333333333, N
454703, 1263.0638888888889, N
454867, 1263.5194444444444, N
455027, 1263.963888888889, N
455193, 1264.425, N
455355, 1264.875, N
455518, 1265.3277777777778, N
455670, 1265.75, N
455824, 1266.1777777777777, N
455988, 1266.6333333333334, N
456160, 1267.111111111111, N
456304, 1267.5111111111112, N
456456, 1267.9333333333334, N
456629, 1268.4138888888888, N
456799, 1268.8861111111112, N
456971, 1269.3638888888888, N
457282, 1270.2277777777779, N
457456, 1270.7111111111112, N
457759, 1271.5527777777777, N
457913, 1271.9805555555556, N
458070, 1272.4166666666667, N
458214, 1272.8166666666666, N
458361, 1273.225, N
458507, 1273.6305555555555, N
458673, 1274.0916666666667, N
458974, 1274.9277777777777, N
459142, 1275.3944444444444, N
459309, 1275.8583333333333, N
459471, 1276.3083333333334, N
459652, 1276.8111111111111, N
459817, 1277.2694444444444, N
460037, 1277.8805555555555, V
460258, 1278.4944444444445, N
460405, 1278.9027777777778, N
460565, 1279.3472222222222, N
460863, 1280.175, N
461035, 1280.6527777777778, N
461199, 1281.1083333333333, N
461365, 1281.5694444444443, N
461521, 1282.0027777777777, N
461680, 1282.4444444444443, N
461837, 1282.8805555555555, N
461995, 1283.3194444444443, N
462150, 1283.75, N
462301, 1284.1694444444445, N
462451, 1284.5861111111112, N
462606, 1285.0166666666667, N
462754, 1285.4277777777777, N
462932, 1285.9222222222222, N
463090, 1286.361111111111, N
463256, 1286.8222222222223, N
463408, 1287.2444444444445, N
463568, 1287.6888888888889, N
463721, 1288.1138888888888, N
463885, 1288.5694444444443, N
464047, 1289.0194444444444, N
464203, 1289.4527777777778, N
464362, 1289.8944444444444, N
464515, 1290.3194444444443, N
464657, 1290.713888888889, N
464863, 1291.286111111111, N
464994, 1291.65, +
465243, 1292.3416666666667, N
465818, 1293.9388888888889, N
466316, 1295.3222222222223, N
466478, 1295.7722222222221, A
467065, 1297.4027777777778, F
467234, 1297.8722222222223, A
467418, 1298.3833333333334, A
467870, 1299.638888888889, N
468043, 1300.1194444444445, A
468605, 1301.6805555555557, N
468678, 1301.8833333333334, +
468773, 1302.1472222222221, N
468934, 1302.5944444444444, N
469253, 1303.4805555555556, N
469483, 1304.1194444444445, N
469768, 1304.911111111111, N
469986, 1305.5166666666667, N
470160, 1306.0, N
470349, 1306.525, N
470603, 1307.2305555555556, N
471066, 1308.5166666666667, N
471319, 1309.2194444444444, N
471511, 1309.7527777777777, N
471724, 1310.3444444444444, N
472019, 1311.1638888888888, N
472195, 1311.6527777777778, N
472353, 1312.0916666666667, N
472660, 1312.9444444444443, N
472974, 1313.8166666666666, N
473150, 1314.3055555555557, N
473438, 1315.1055555555556, N
473711, 1315.8638888888888, N
473910, 1316.4166666666667, N
474074, 1316.8722222222223, N
474405, 1317.7916666666667, N
474668, 1318.5222222222221, N
474833, 1318.9805555555556, N
474995, 1319.4305555555557, N
475136, 1319.8222222222223, N
475409, 1320.5805555555555, N
475637, 1321.213888888889, N
475819, 1321.7194444444444, N
476027, 1322.2972222222222, N
476242, 1322.8944444444444, N
476430, 1323.4166666666667, N
476642, 1324.0055555555555, N
476800, 1324.4444444444443, N
476969, 1324.9138888888888, N
477236, 1325.6555555555556, N
477434, 1326.2055555555555, N
477569, 1326.5805555555555, N
477732, 1327.0333333333333, N
477941, 1327.6138888888888, N
478182, 1328.2833333333333, N
478449, 1329.025, N
478611, 1329.475, N
478824, 1330.0666666666666, N
478982, 1330.5055555555555, N
479221, 1331.1694444444445, N
479375, 1331.5972222222222, N
479711, 1332.5305555555556, N
479925, 1333.125, N
480185, 1333.8472222222222, N
480445, 1334.5694444444443, N
480739, 1335.3861111111112, N
480943, 1335.9527777777778, N
481177, 1336.6027777777779, N
481353, 1337.0916666666667, N
481580, 1337.7222222222222, N
481764, 1338.2333333333333, N
481880, 1338.5555555555557, a
482023, 1338.9527777777778, a
482251, 1339.5861111111112, N
482577, 1340.4916666666666, N
482779, 1341.0527777777777, N
483176, 1342.1555555555556, N
483381, 1342.725, N
483518, 1343.1055555555556, N
483726, 1343.6833333333334, N
483949, 1344.3027777777777, N
484198, 1344.9944444444445, N
484471, 1345.7527777777777, N
484741, 1346.5027777777777, N
485030, 1347.3055555555557, N
485287, 1348.0194444444444, N
485448, 1348.4666666666667, N
485705, 1349.1805555555557, N
485928, 1349.8, N
486193, 1350.536111111111, N
486394, 1351.0944444444444, N
486640, 1351.7777777777778, N
486930, 1352.5833333333333, N
487213, 1353.3694444444445, N
487497, 1354.1583333333333, N
487678, 1354.661111111111, N
487962, 1355.45, N
488299, 1356.3861111111112, N
488498, 1356.9388888888889, N
488696, 1357.4888888888888, N
489020, 1358.388888888889, N
489233, 1358.9805555555556, N
489474, 1359.65, N
489679, 1360.2194444444444, N
489945, 1360.9583333333333, N
490177, 1361.6027777777779, N
490379, 1362.1638888888888, N
490637, 1362.8805555555555, N
490813, 1363.3694444444445, N
490976, 1363.8222222222223, N
491279, 1364.6638888888888, N
491509, 1365.3027777777777, N
491705, 1365.8472222222222, N
491941, 1366.5027777777777, N
492106, 1366.9611111111112, N
492308, 1367.5222222222221, N
492590, 1368.3055555555557, N
492849, 1369.025, N
493080, 1369.6666666666667, N
493287, 1370.2416666666666, N
493528, 1370.911111111111, N
493799, 1371.6638888888888, N
494012, 1372.2555555555555, N
494216, 1372.8222222222223, N
494382, 1373.2833333333333, N
494611, 1373.9194444444445, N
494877, 1374.6583333333333, N
495299, 1375.8305555555555, N
495569, 1376.5805555555555, N
495871, 1377.4194444444445, N
496144, 1378.1777777777777, N
496405, 1378.9027777777778, N
496635, 1379.5416666666667, N
496926, 1380.35, N
497202, 1381.1166666666666, N
497412, 1381.7, N
497736, 1382.6, N
497939, 1383.1638888888888, N
498173, 1383.8138888888889, N
498339, 1384.275, N
498588, 1384.9666666666667, N
498773, 1385.4805555555556, N
498987, 1386.075, N
499200, 1386.6666666666667, N
499465, 1387.4027777777778, N
499686, 1388.0166666666667, N
500016, 1388.9333333333334, N
500452, 1390.1444444444444, N
500765, 1391.013888888889, N
500985, 1391.625, N
501250, 1392.361111111111, N
501546, 1393.1833333333334, N
501720, 1393.6666666666667, N
502010, 1394.4722222222222, N
502211, 1395.0305555555556, N
502430, 1395.638888888889, N
502683, 1396.3416666666667, N
502871, 1396.8638888888888, N
503120, 1397.5555555555557, N
503275, 1397.986111111111, N
503436, 1398.4333333333334, N
503662, 1399.0611111111111, N
503897, 1399.713888888889, N
504071, 1400.1972222222223, N
504297, 1400.825, N
504676, 1401.8777777777777, N
504874, 1402.4277777777777, N
505148, 1403.1888888888889, N
505330, 1403.6944444444443, N
505513, 1404.2027777777778, N
505666, 1404.6277777777777, N
505870, 1405.1944444444443, N
506033, 1405.6472222222221, N
506248, 1406.2444444444445, N
506534, 1407.0388888888888, N
506832, 1407.8666666666666, N
507062, 1408.5055555555555, N
507291, 1409.1416666666667, N
507528, 1409.8, N
507819, 1410.6083333333333, N
508003, 1411.1194444444445, N
508244, 1411.7888888888888, N
508455, 1412.375, N
508725, 1413.125, N
508966, 1413.7944444444445, N
509148, 1414.3, N
509375, 1414.9305555555557, N
509689, 1415.8027777777777, N
509915, 1416.4305555555557, N
510162, 1417.1166666666666, N
510318, 1417.55, N
510564, 1418.2333333333333, N
510809, 1418.9138888888888, N
510981, 1419.3916666666667, N
511192, 1419.9777777777779, N
511395, 1420.5416666666667, N
511616, 1421.1555555555556, N
511837, 1421.7694444444444, N
511999, 1422.2194444444444, N
512211, 1422.8083333333334, N
512422, 1423.3944444444444, N
512581, 1423.8361111111112, N
512847, 1424.575, N
513014, 1425.0388888888888, N
513262, 1425.7277777777779, N
513523, 1426.4527777777778, N
513830, 1427.3055555555557, N
514122, 1428.1166666666666, N
514366, 1428.7944444444445, N
514642, 1429.5611111111111, N
514863, 1430.175, N
515089, 1430.8027777777777, N
515410, 1431.6944444444443, N
515689, 1432.4694444444444, N
515900, 1433.0555555555557, N
516124, 1433.6777777777777, N
516410, 1434.4722222222222, N
516643, 1435.1194444444445, N
516890, 1435.8055555555557, N
517116, 1436.4333333333334, N
517351, 1437.0861111111112, N
517586, 1437.7388888888888, N
517880, 1438.5555555555557, N
518202, 1439.45, N
518436, 1440.1, N
518596, 1440.5444444444445, N
518848, 1441.2444444444445, N
519046, 1441.7944444444445, N
519277, 1442.4361111111111, N
519550, 1443.1944444444443, N
519847, 1444.0194444444444, N
520074, 1444.65, N
520302, 1445.2833333333333, N
520489, 1445.8027777777777, N
520722, 1446.45, N
520969, 1447.1361111111112, N
521269, 1447.9694444444444, N
521535, 1448.7083333333333, N
521763, 1449.3416666666667, N
522008, 1450.0222222222221, N
522268, 1450.7444444444445, N
522499, 1451.3861111111112, N
522674, 1451.8722222222223, N
522934, 1452.5944444444444, N
523269, 1453.525, N
523464, 1454.0666666666666, N
523816, 1455.0444444444445, N
524019, 1455.6083333333333, N
524251, 1456.2527777777777, N
524474, 1456.8722222222223, N
524627, 1457.2972222222222, N
524857, 1457.9361111111111, N
525055, 1458.486111111111, N
525281, 1459.1138888888888, N
525454, 1459.5944444444444, N
525666, 1460.1833333333334, N
525905, 1460.8472222222222, N
526133, 1461.4805555555556, N
526295, 1461.9305555555557, N
526485, 1462.4583333333333, N
526648, 1462.911111111111, N
526966, 1463.7944444444445, N
527219, 1464.4972222222223, N
527420, 1465.0555555555557, N
527586, 1465.5166666666667, N
527744, 1465.9555555555555, N
527975, 1466.5972222222222, N
528166, 1467.1277777777777, N
528307, 1467.5194444444444, N
528545, 1468.1805555555557, N
528778, 1468.8277777777778, N
528980, 1469.388888888889, N
529250, 1470.138888888889, N
529398, 1470.55, N
529572, 1471.0333333333333, N
529825, 1471.736111111111, N
530135, 1472.5972222222222, N
530403, 1473.3416666666667, N
530693, 1474.1472222222221, N
530910, 1474.75, N
531222, 1475.6166666666666, N
531393, 1476.0916666666667, N
531611, 1476.6972222222223, N
531877, 1477.4361111111111, N
532270, 1478.5277777777778, N
532589, 1479.4138888888888, N
532803, 1480.0083333333334, N
533079, 1480.775, N
533287, 1481.3527777777779, N
533590, 1482.1944444444443, N
533817, 1482.825, N
533962, 1483.2277777777779, N
534121, 1483.6694444444445, N
534359, 1484.3305555555555, N
534545, 1484.8472222222222, N
534824, 1485.6222222222223, N
535000, 1486.111111111111, N
535249, 1486.8027777777777, N
535572, 1487.7, N
535903, 1488.6194444444445, N
536090, 1489.138888888889, N
536246, 1489.5722222222223, N
536422, 1490.0611111111111, N
536735, 1490.9305555555557, N
536983, 1491.6194444444445, N
537203, 1492.2305555555556, N
537402, 1492.7833333333333, N
537673, 1493.536111111111, N
537933, 1494.2583333333334, N
538095, 1494.7083333333333, N
538302, 1495.2833333333333, N
538487, 1495.7972222222222, N
538739, 1496.4972222222223, N
538982, 1497.1722222222222, N
539281, 1498.0027777777777, N
539587, 1498.8527777777779, N
539842, 1499.5611111111111, N
540052, 1500.1444444444444, N
540196, 1500.5444444444445, N
540505, 1501.4027777777778, N
540789, 1502.1916666666666, N
541136, 1503.1555555555556, N
541370, 1503.8055555555557, N
541675, 1504.6527777777778, N
541954, 1505.4277777777777, N
542244, 1506.2333333333333, N
542429, 1506.7472222222223, N
542796, 1507.7666666666667, N
543037, 1508.4361111111111, N
543284, 1509.1222222222223, N
543469, 1509.6361111111112, N
543674, 1510.2055555555555, N
543898, 1510.8277777777778, N
544110, 1511.4166666666667, N
544338, 1512.05, N
544605, 1512.7916666666667, N
544848, 1513.4666666666667, N
545001, 1513.8916666666667, N
545301, 1514.725, N
545559, 1515.4416666666666, N
545786, 1516.0722222222223, N
546046, 1516.7944444444445, N
546287, 1517.463888888889, N
546531, 1518.1416666666667, N
546774, 1518.8166666666666, N
547072, 1519.6444444444444, N
547350, 1520.4166666666667, N
547529, 1520.9138888888888, N
547799, 1521.6638888888888, N
548092, 1522.4777777777779, N
548266, 1522.9611111111112, N
548557, 1523.7694444444444, N
548759, 1524.3305555555555, N
549007, 1525.0194444444444, N
549175, 1525.486111111111, N
549405, 1526.125, N
549680, 1526.888888888889, N
549793, 1527.2027777777778, +
549941, 1527.6138888888888, N
550153, 1528.2027777777778, N
550327, 1528.6861111111111, N
550505, 1529.1805555555557, N
550707, 1529.7416666666666, N
550867, 1530.1861111111111, N
551033, 1530.6472222222221, N
551195, 1531.0972222222222, N
551356, 1531.5444444444445, N
551518, 1531.9944444444445, N
551687, 1532.463888888889, N
551858, 1532.9388888888889, N
552033, 1533.425, N
552196, 1533.8777777777777, N
552365, 1534.3472222222222, N
552525, 1534.7916666666667, N
552687, 1535.2416666666666, N
552850, 1535.6944444444443, N
553012, 1536.1444444444444, N
553177, 1536.6027777777779, N
553340, 1537.0555555555557, N
553505, 1537.513888888889, N
553678, 1537.9944444444445, N
553846, 1538.4611111111112, N
554022, 1538.95, N
554198, 1539.4388888888889, N
554374, 1539.9277777777777, N
554560, 1540.4444444444443, N
554803, 1541.1194444444445, N
555018, 1541.7166666666667, N
555186, 1542.1833333333334, N
555342, 1542.6166666666666, N
555502, 1543.0611111111111, N
555665, 1543.513888888889, N
555820, 1543.9444444444443, N
555983, 1544.3972222222221, N
556153, 1544.8694444444445, N
556325, 1545.3472222222222, N
556500, 1545.8333333333333, N
556673, 1546.3138888888889, N
556838, 1546.7722222222221, N
557004, 1547.2333333333333, N
557162, 1547.6722222222222, N
557317, 1548.1027777777779, N
557474, 1548.5388888888888, N
557630, 1548.9722222222222, N
557790, 1549.4166666666667, N
557946, 1549.85, N
558110, 1550.3055555555557, N
558279, 1550.775, N
558448, 1551.2444444444445, N
558621, 1551.725, N
558787, 1552.1861111111111, N
558951, 1552.6416666666667, N
559115, 1553.0972222222222, N
559273, 1553.536111111111, N
559429, 1553.9694444444444, N
559585, 1554.4027777777778, N
559742, 1554.838888888889, N
559902, 1555.2833333333333, N
560061, 1555.725, N
560226, 1556.1833333333334, N
560395, 1556.6527777777778, N
560559, 1557.1083333333333, N
560726, 1557.5722222222223, N
560890, 1558.0277777777778, N
561057, 1558.4916666666666, N
561221, 1558.9472222222223, N
561379, 1559.3861111111112, N
561541, 1559.8361111111112, N
561696, 1560.2666666666667, N
561853, 1560.7027777777778, N
562010, 1561.138888888889, N
562165, 1561.5694444444443, N
562326, 1562.0166666666667, N
562487, 1562.463888888889, N
562638, 1562.8833333333334, N
562802, 1563.338888888889, N
562966, 1563.7944444444445, N
563133, 1564.2583333333334, N
563300, 1564.7222222222222, N
563457, 1565.1583333333333, N
563614, 1565.5944444444444, N
563764, 1566.0111111111112, N
563913, 1566.425, N
564067, 1566.8527777777779, N
564221, 1567.2805555555556, N
564378, 1567.7166666666667, N
564530, 1568.138888888889, N
564691, 1568.5861111111112, N
564857, 1569.0472222222222, N
565026, 1569.5166666666667, N
565194, 1569.9833333333333, N
565359, 1570.4416666666666, N
565516, 1570.8777777777777, N
565676, 1571.3222222222223, N
565830, 1571.75, N
565983, 1572.175, N
566134, 1572.5944444444444, N
566290, 1573.0277777777778, N
566445, 1573.4583333333333, N
566603, 1573.8972222222221, N
566760, 1574.3333333333333, N
566922, 1574.7833333333333, N
567041, 1575.1138888888888, +
567154, 1575.4277777777777, N
567382, 1576.0611111111111, N
567639, 1576.775, N
567862, 1577.3944444444444, N
568072, 1577.9777777777779, N
568352, 1578.7555555555555, N
568583, 1579.3972222222221, N
568771, 1579.9194444444445, N
569065, 1580.736111111111, N
569312, 1581.4222222222222, N
569506, 1581.9611111111112, N
569892, 1583.0333333333333, N
570116, 1583.6555555555556, V
570463, 1584.6194444444445, N
570719, 1585.3305555555555, N
570909, 1585.8583333333333, N
571242, 1586.7833333333333, N
571517, 1587.5472222222222, N
571796, 1588.3222222222223, N
572049, 1589.025, N
572255, 1589.5972222222222, N
572407, 1590.0194444444444, N
572628, 1590.6333333333334, N
572838, 1591.2166666666667, N
573210, 1592.25, N
573424, 1592.8444444444444, N
573666, 1593.5166666666667, N
573920, 1594.2222222222222, N
574122, 1594.7833333333333, N
574360, 1595.4444444444443, N
574586, 1596.0722222222223, N
574844, 1596.7888888888888, N
575098, 1597.4944444444445, N
575295, 1598.0416666666667, N
575467, 1598.5194444444444, N
575702, 1599.1722222222222, N
575982, 1599.95, N
576238, 1600.661111111111, N
576387, 1601.075, N
576704, 1601.9555555555555, N
576944, 1602.6222222222223, N
577116, 1603.1, N
577390, 1603.861111111111, N
577639, 1604.5527777777777, N
577891, 1605.2527777777777, N
578234, 1606.2055555555555, N
578482, 1606.8944444444444, N
578781, 1607.725, N
578971, 1608.2527777777777, N
579159, 1608.775, N
579437, 1609.5472222222222, N
579750, 1610.4166666666667, N
580081, 1611.3361111111112, N
580339, 1612.0527777777777, N
580586, 1612.7388888888888, N
580728, 1613.1333333333334, N
580997, 1613.8805555555555, N
581183, 1614.3972222222221, N
581398, 1614.9944444444445, N
581696, 1615.8222222222223, N
581923, 1616.4527777777778, N
582199, 1617.2194444444444, N
582374, 1617.7055555555555, N
582527, 1618.1305555555555, N
582666, 1618.5166666666667, N
582835, 1618.986111111111, N
583058, 1619.6055555555556, N
583267, 1620.1861111111111, N
583486, 1620.7944444444445, N
583693, 1621.3694444444445, N
584052, 1622.3666666666666, N
584317, 1623.1027777777779, N
584617, 1623.9361111111111, N
584878, 1624.661111111111, N
585079, 1625.2194444444444, N
585308, 1625.8555555555556, N
585467, 1626.2972222222222, N
585620, 1626.7222222222222, N
585815, 1627.263888888889, N
586039, 1627.8861111111112, N
586257, 1628.4916666666666, N
586522, 1629.2277777777779, N
586702, 1629.7277777777779, N
586872, 1630.2, N
587133, 1630.925, N
587296, 1631.3777777777777, N
587590, 1632.1944444444443, N
587798, 1632.7722222222221, N
588044, 1633.4555555555555, N
588390, 1634.4166666666667, N
588717, 1635.325, N
589041, 1636.225, N
589313, 1636.9805555555556, N
589542, 1637.6166666666666, N
589752, 1638.2, N
589970, 1638.8055555555557, N
590313, 1639.7583333333334, N
590572, 1640.4777777777779, N
590790, 1641.0833333333333, N
591050, 1641.8055555555557, N
591219, 1642.275, N
591536, 1643.1555555555556, N
591754, 1643.7611111111112, N
591985, 1644.4027777777778, N
592233, 1645.0916666666667, N
592621, 1646.1694444444445, N
592891, 1646.9194444444445, N
593144, 1647.6222222222223, N
593422, 1648.3944444444444, N
593667, 1649.075, N
593860, 1649.611111111111, N
594098, 1650.2722222222221, N
594267, 1650.7416666666666, N
594474, 1651.3166666666666, N
594715, 1651.986111111111, N
595055, 1652.9305555555557, N
595279, 1653.5527777777777, N
595479, 1654.1083333333333, N
595810, 1655.0277777777778, N
596019, 1655.6083333333333, N
596278, 1656.3277777777778, N
596503, 1656.9527777777778, N
596712, 1657.5333333333333, N
596849, 1657.9138888888888, N
597144, 1658.7333333333333, N
597412, 1659.4777777777779, N
597663, 1660.175, N
597956, 1660.9888888888888, N
598228, 1661.7444444444445, N
598431, 1662.3083333333334, N
598682, 1663.0055555555555, N
598851, 1663.475, N
599194, 1664.4277777777777, N
599389, 1664.9694444444444, N
599626, 1665.6277777777777, N
599796, 1666.1, N
600067, 1666.8527777777779, N
600355, 1667.6527777777778, N
600611, 1668.3638888888888, N
600828, 1668.9666666666667, N
601091, 1669.6972222222223, N
601465, 1670.736111111111, N
601725, 1671.4583333333333, N
601957, 1672.1027777777779, N
602213, 1672.8138888888889, N
602371, 1673.2527777777777, N
602664, 1674.0666666666666, N
602893, 1674.7027777777778, N
603153, 1675.425, N
603460, 1676.2777777777778, N
603659, 1676.8305555555555, N
604003, 1677.786111111111, N
604211, 1678.3638888888888, N
604406, 1678.9055555555556, N
604667, 1679.6305555555555, N
604890, 1680.25, N
605015, 1680.5972222222222, a
605259, 1681.275, N
605431, 1681.7527777777777, N
605688, 1682.4666666666667, N
605956, 1683.2111111111112, N
606223, 1683.9527777777778, N
606564, 1684.9, N
606775, 1685.486111111111, N
607045, 1686.236111111111, N
607267, 1686.8527777777779, N
607465, 1687.4027777777778, N
607658, 1687.9388888888889, N
607855, 1688.486111111111, N
608185, 1689.4027777777778, N
608359, 1689.8861111111112, N
608555, 1690.4305555555557, N
608831, 1691.1972222222223, N
609070, 1691.861111111111, N
609267, 1692.4083333333333, N
609527, 1693.1305555555555, N
609750, 1693.75, N
609905, 1694.1805555555557, N
610157, 1694.8805555555555, N
610398, 1695.55, N
610692, 1696.3666666666666, N
611084, 1697.4555555555555, N
611296, 1698.0444444444445, N
611475, 1698.5416666666667, N
611724, 1699.2333333333333, N
611981, 1699.9472222222223, N
612159, 1700.4416666666666, N
612382, 1701.0611111111111, N
612690, 1701.9166666666667, N
612991, 1702.7527777777777, N
613181, 1703.2805555555556, N
613400, 1703.888888888889, N
613577, 1704.3805555555555, N
613801, 1705.0027777777777, N
614036, 1705.6555555555556, N
614210, 1706.138888888889, N
614509, 1706.9694444444444, N
614827, 1707.8527777777779, N
615114, 1708.65, N
615404, 1709.4555555555555, N
615686, 1710.2388888888888, N
615934, 1710.9277777777777, N
616255, 1711.8194444444443, N
616511, 1712.5305555555556, N
616757, 1713.213888888889, N
616983, 1713.8416666666667, N
617168, 1714.3555555555556, N
617451, 1715.1416666666667, N
617739, 1715.9416666666666, N
618041, 1716.7805555555556, N
618218, 1717.2722222222221, N
618521, 1718.1138888888888, N
618686, 1718.5722222222223, N
619005, 1719.4583333333333, N
619344, 1720.4, N
619540, 1720.9444444444443, N
619840, 1721.7777777777778, N
620085, 1722.4583333333333, N
620312, 1723.088888888889, N
620619, 1723.9416666666666, N
620830, 1724.5277777777778, N
621029, 1725.0805555555555, N
621347, 1725.963888888889, N
621619, 1726.7194444444444, N
621911, 1727.5305555555556, N
622144, 1728.1777777777777, N
622446, 1729.0166666666667, N
622690, 1729.6944444444443, N
622861, 1730.1694444444445, N
623084, 1730.7888888888888, N
623337, 1731.4916666666666, N
623595, 1732.2083333333333, N
623853, 1732.925, N
624034, 1733.4277777777777, N
624375, 1734.375, N
624548, 1734.8555555555556, N
624755, 1735.4305555555557, N
624896, 1735.8222222222223, N
625039, 1736.2194444444444, N
625202, 1736.6722222222222, N
625446, 1737.35, N
625634, 1737.8722222222223, N
625917, 1738.6583333333333, N
626174, 1739.3722222222223, N
626551, 1740.4194444444445, N
626754, 1740.9833333333333, N
626957, 1741.5472222222222, N
627154, 1742.0944444444444, N
627370, 1742.6944444444443, N
627645, 1743.4583333333333, N
627865, 1744.0694444444443, N
628096, 1744.7111111111112, N
628305, 1745.2916666666667, N
628509, 1745.8583333333333, N
628783, 1746.6194444444445, N
629024, 1747.2888888888888, N
629349, 1748.1916666666666, N
629564, 1748.7888888888888, N
629848, 1749.5777777777778, N
630195, 1750.5416666666667, N
630428, 1751.1888888888889, N
630689, 1751.9138888888888, N
630874, 1752.4277777777777, N
631134, 1753.15, N
631315, 1753.6527777777778, N
631474, 1754.0944444444444, N
631695, 1754.7083333333333, N
631890, 1755.25, N
632060, 1755.7222222222222, N
632318, 1756.4388888888889, N
632480, 1756.888888888889, N
632618, 1757.2722222222221, N
632821, 1757.8361111111112, N
633117, 1758.6583333333333, N
633358, 1759.3277777777778, N
633614, 1760.0388888888888, N
633943, 1760.9527777777778, N
634156, 1761.5444444444445, N
634423, 1762.286111111111, N
634658, 1762.9388888888889, N
634934, 1763.7055555555555, N
635207, 1764.463888888889, N
635434, 1765.0944444444444, N
635755, 1765.986111111111, N
636130, 1767.0277777777778, N
636319, 1767.5527777777777, N
636610, 1768.361111111111, N
636831, 1768.975, N
636965, 1769.3472222222222, N
637241, 1770.1138888888888, N
637472, 1770.7555555555555, N
637659, 1771.275, N
637813, 1771.7027777777778, N
638079, 1772.4416666666666, N
638364, 1773.2333333333333, N
638642, 1774.0055555555555, N
638924, 1774.7888888888888, N
639082, 1775.2277777777779, N
639298, 1775.8277777777778, N
639644, 1776.7888888888888, N
639872, 1777.4222222222222, N
640138, 1778.161111111111, N
640463, 1779.0638888888889, N
640735, 1779.8194444444443, N
640952, 1780.4222222222222, N
641211, 1781.1416666666667, N
641357, 1781.5472222222222, N
641623, 1782.286111111111, N
641851, 1782.9194444444445, N
642070, 1783.5277777777778, N
642276, 1784.1, N
642580, 1784.9444444444443, N
642894, 1785.8166666666666, N
643106, 1786.4055555555556, N
643387, 1787.1861111111111, N
643634, 1787.8722222222223, N
643836, 1788.4333333333334, N
644018, 1788.9388888888889, N
644310, 1789.75, N
644524, 1790.3444444444444, N
644721, 1790.8916666666667, N
645024, 1791.7333333333333, N
645292, 1792.4777777777779, N
645604, 1793.3444444444444, N
645895, 1794.1527777777778, N
646307, 1795.2972222222222, N
646460, 1795.7222222222222, N
646591, 1796.0861111111112, N
646856, 1796.8222222222223, N
647036, 1797.3222222222223, N
647308, 1798.0777777777778, N
647634, 1798.9833333333333, N
647860, 1799.611111111111, N
648124, 1800.3444444444444, N
648345, 1800.9583333333333, N
648557, 1801.5472222222222, N
648723, 1802.0083333333334, N
649092, 1803.0333333333333, N
649342, 1803.7277777777779, N
649615, 1804.486111111111, N
649877, 1805.213888888889, N
