14, 0.03888888888888889, +
24, 0.06666666666666667, ~
99, 0.275, N
431, 1.1972222222222222, N
660, 1.8333333333333333, N
862, 2.3944444444444444, N
1002, 2.783333333333333, N
1270, 3.5277777777777777, N
1483, 4.1194444444444445, N
1719, 4.775, N
1874, 5.205555555555556, N
2102, 5.838888888888889, N
2251, 6.252777777777778, V
2368, 6.5777777777777775, V
2518, 6.9944444444444445, N
2659, 7.386111111111111, N
2792, 7.7555555555555555, N
2933, 8.147222222222222, N
3128, 8.688888888888888, N
3333, 9.258333333333333, N
3464, 9.622222222222222, N
3584, 9.955555555555556, ~
3714, 10.316666666666666, N
3853, 10.702777777777778, V
3993, 11.091666666666667, N
4236, 11.766666666666667, N
4540, 12.61111111111111, V
4722, 13.116666666666667, N
4859, 13.497222222222222, N
5082, 14.116666666666667, N
5247, 14.575, N
5434, 15.094444444444445, N
5649, 15.691666666666666, N
5794, 16.094444444444445, N
6030, 16.75, N
6200, 17.22222222222222, N
6434, 17.872222222222224, N
6711, 18.641666666666666, N
6944, 19.288888888888888, N
7279, 20.219444444444445, N
7587, 21.075, N
7750, 21.52777777777778, N
7882, 21.894444444444446, N
8154, 22.65, N
8312, 23.08888888888889, N
8541, 23.725, N
8876, 24.655555555555555, N
9114, 25.316666666666666, N
9294, 25.816666666666666, N
9432, 26.2, N
9672, 26.866666666666667, N
9951, 27.641666666666666, N
10168, 28.244444444444444, N
10497, 29.158333333333335, N
10830, 30.083333333333332, N
11081, 30.780555555555555, N
11342, 31.505555555555556, N
11653, 32.36944444444445, N
11858, 32.93888888888889, N
12018, 33.38333333333333, N
12277, 34.102777777777774, N
12526, 34.794444444444444, N
12755, 35.43055555555556, N
12991, 36.08611111111111, N
13198, 36.66111111111111, N
13540, 37.611111111111114, N
13777, 38.269444444444446, N
14015, 38.93055555555556, N
14290, 39.69444444444444, N
14589, 40.525, N
14786, 41.07222222222222, N
14926, 41.46111111111111, N
15243, 42.34166666666667, N
15435, 42.875, N
15630, 43.416666666666664, N
15847, 44.019444444444446, ~
15930, 44.25, N
16069, 44.63611111111111, V
16306, 45.294444444444444, N
16599, 46.108333333333334, N
16689, 46.358333333333334, +
16726, 46.46111111111111, V
16858, 46.827777777777776, V
16976, 47.15555555555556, V
17156, 47.65555555555556, +
17274, 47.983333333333334, N
17429, 48.41388888888889, V
17651, 49.03055555555556, N
17814, 49.483333333333334, ~
17922, 49.78333333333333, N
18229, 50.63611111111111, N
18434, 51.205555555555556, N
18641, 51.78055555555556, N
18911, 52.53055555555556, N
19116, 53.1, N
19259, 53.49722222222222, N
19393, 53.86944444444445, N
19742, 54.83888888888889, N
19894, 55.26111111111111, V
20101, 55.83611111111111, N
20295, 56.375, N
20454, 56.81666666666667, N
20582, 57.172222222222224, N
20709, 57.525, N
20898, 58.05, N
21033, 58.425, N
21158, 58.772222222222226, N
21279, 59.108333333333334, N
21408, 59.46666666666667, N
21706, 60.294444444444444, N
21861, 60.725, V
21974, 61.03888888888889, V
22140, 61.5, N
22258, 61.827777777777776, V
22388, 62.18888888888889, N
22514, 62.53888888888889, N
22650, 62.916666666666664, N
22768, 63.24444444444445, N
22884, 63.56666666666667, N
23263, 64.61944444444444, N
23397, 64.99166666666666, V
23641, 65.66944444444445, N
23770, 66.02777777777777, V
24074, 66.87222222222222, N
24226, 67.29444444444445, N
24362, 67.67222222222222, N
24490, 68.02777777777777, N
24725, 68.68055555555556, N
24884, 69.12222222222222, N
25002, 69.45, N
25301, 70.28055555555555, N
25441, 70.66944444444445, V
25674, 71.31666666666666, N
26001, 72.225, N
26301, 73.05833333333334, N
26449, 73.46944444444445, V
26590, 73.86111111111111, V
26820, 74.5, N
26973, 74.925, N
27217, 75.60277777777777, N
27518, 76.43888888888888, N
27828, 77.3, N
27972, 77.7, V
28218, 78.38333333333334, N
28452, 79.03333333333333, N
28637, 79.54722222222222, N
28862, 80.17222222222222, N
29025, 80.625, N
29341, 81.50277777777778, N
29519, 81.99722222222222, N
29785, 82.73611111111111, N
30062, 83.50555555555556, N
30280, 84.11111111111111, N
30591, 84.975, N
30743, 85.39722222222223, V
31009, 86.1361111111111, N
31249, 86.80277777777778, N
31578, 87.71666666666667, N
31850, 88.47222222222223, N
32009, 88.91388888888889, N
32243, 89.56388888888888, N
32516, 90.32222222222222, N
32729, 90.91388888888889, N
32985, 91.625, N
33033, 91.75833333333334, +
33132, 92.03333333333333, V
33269, 92.41388888888889, V
33405, 92.79166666666667, V
33602, 93.33888888888889, +
33764, 93.78888888888889, N
33895, 94.15277777777777, V
34176, 94.93333333333334, ~
34287, 95.24166666666666, N
34440, 95.66666666666667, a
34583, 96.06388888888888, N
34723, 96.45277777777778, N
34986, 97.18333333333334, N
35139, 97.60833333333333, V
35263, 97.95277777777778, V
35533, 98.70277777777778, N
35664, 99.06666666666666, a
35792, 99.42222222222222, N
35930, 99.80555555555556, N
36079, 100.21944444444445, N
36296, 100.82222222222222, N
36496, 101.37777777777778, |
36556, 101.54444444444445, N
36678, 101.88333333333334, V
36772, 102.14444444444445, |
36920, 102.55555555555556, N
37064, 102.95555555555555, N
37296, 103.6, N
37404, 103.9, ~
37542, 104.28333333333333, N
37769, 104.91388888888889, N
37837, 105.10277777777777, +
37895, 105.26388888888889, V
38000, 105.55555555555556, V
38120, 105.88888888888889, V
38291, 106.3638888888889, +
38394, 106.65, N
38635, 107.31944444444444, N
38870, 107.97222222222223, N
39002, 108.33888888888889, V
39126, 108.68333333333334, V
39272, 109.08888888888889, N
39471, 109.64166666666667, N
39655, 110.15277777777777, N
39781, 110.50277777777778, N
39925, 110.90277777777777, N
40044, 111.23333333333333, N
40260, 111.83333333333333, N
40390, 112.19444444444444, N
40704, 113.06666666666666, N
40833, 113.425, V
41243, 114.56388888888888, N
41394, 114.98333333333333, V
41660, 115.72222222222223, N
41813, 116.14722222222223, N
42128, 117.02222222222223, N
42437, 117.88055555555556, N
42659, 118.49722222222222, N
42914, 119.20555555555555, N
43053, 119.59166666666667, N
43401, 120.55833333333334, N
43555, 120.98611111111111, N
43686, 121.35, N
43842, 121.78333333333333, N
43988, 122.18888888888888, N
44224, 122.84444444444445, N
44458, 123.49444444444444, N
44625, 123.95833333333333, N
44758, 124.32777777777778, N
44885, 124.68055555555556, N
45034, 125.09444444444445, N
45153, 125.425, N
45289, 125.80277777777778, N
45567, 126.575, N
45708, 126.96666666666667, V
45996, 127.76666666666667, N
46117, 128.1027777777778, V
46336, 128.7111111111111, N
46460, 129.05555555555554, N
46733, 129.8138888888889, N
46859, 130.1638888888889, V
47062, 130.7277777777778, N
47236, 131.2111111111111, N
47348, 131.5222222222222, N
47595, 132.20833333333334, N
48028, 133.4111111111111, N
48196, 133.87777777777777, V
48402, 134.45, N
48738, 135.38333333333333, N
49061, 136.28055555555557, N
49189, 136.63611111111112, V
49420, 137.27777777777777, N
49559, 137.6638888888889, N
49689, 138.025, N
49938, 138.71666666666667, N
50121, 139.225, N
50450, 140.13888888888889, N
50745, 140.95833333333334, N
51055, 141.81944444444446, N
51187, 142.1861111111111, V
51304, 142.51111111111112, N
51430, 142.86111111111111, N
51655, 143.48611111111111, N
51907, 144.1861111111111, N
52179, 144.94166666666666, N
52486, 145.79444444444445, N
52934, 147.0388888888889, N
53170, 147.69444444444446, N
53355, 148.20833333333334, N
53748, 149.3, N
54132, 150.36666666666667, N
54330, 150.91666666666666, N
54472, 151.3111111111111, N
54746, 152.07222222222222, N
54924, 152.56666666666666, N
55141, 153.16944444444445, N
55423, 153.95277777777778, N
55672, 154.64444444444445, N
55809, 155.025, N
55978, 155.49444444444444, N
56231, 156.19722222222222, N
56370, 156.58333333333334, V
56503, 156.95277777777778, V
56843, 157.8972222222222, N
57005, 158.34722222222223, V
57269, 159.08055555555555, N
57527, 159.79722222222222, N
57798, 160.55, N
58086, 161.35, N
58345, 162.06944444444446, N
58580, 162.72222222222223, N
58817, 163.38055555555556, N
59053, 164.0361111111111, N
59365, 164.90277777777777, N
59632, 165.64444444444445, N
59896, 166.37777777777777, N
60103, 166.95277777777778, N
60417, 167.825, N
60612, 168.36666666666667, N
60809, 168.9138888888889, N
60966, 169.35, N
61210, 170.02777777777777, N
61496, 170.82222222222222, N
61692, 171.36666666666667, N
61906, 171.9611111111111, N
62116, 172.54444444444445, N
62280, 173.0, N
62515, 173.65277777777777, N
62786, 174.40555555555557, N
63072, 175.2, N
63256, 175.7111111111111, N
63544, 176.51111111111112, N
63747, 177.075, N
63890, 177.47222222222223, N
64010, 177.80555555555554, N
64132, 178.14444444444445, N
64353, 178.75833333333333, N
64608, 179.46666666666667, N
64853, 180.1472222222222, N
65065, 180.73611111111111, N
65341, 181.50277777777777, N
65610, 182.25, N
65877, 182.99166666666667, N
66044, 183.45555555555555, N
66211, 183.91944444444445, N
66460, 184.61111111111111, N
66691, 185.25277777777777, N
66888, 185.8, N
67061, 186.28055555555557, N
67207, 186.6861111111111, N
67327, 187.01944444444445, N
67491, 187.475, N
67778, 188.2722222222222, N
67954, 188.76111111111112, N
68102, 189.17222222222222, N
68381, 189.94722222222222, N
68624, 190.62222222222223, N
68874, 191.31666666666666, N
69150, 192.08333333333334, N
69404, 192.7888888888889, N
69633, 193.425, N
69888, 194.13333333333333, N
70026, 194.51666666666668, V
70261, 195.16944444444445, N
70525, 195.90277777777777, N
70742, 196.50555555555556, N
70996, 197.2111111111111, N
71140, 197.61111111111111, V
71392, 198.3111111111111, N
71620, 198.94444444444446, N
71925, 199.79166666666666, N
72091, 200.25277777777777, N
72358, 200.99444444444444, N
72519, 201.44166666666666, N
72760, 202.11111111111111, N
72960, 202.66666666666666, N
73172, 203.25555555555556, N
73393, 203.86944444444444, N
73651, 204.5861111111111, N
73827, 205.075, N
74049, 205.69166666666666, N
74212, 206.14444444444445, N
74416, 206.7111111111111, N
74769, 207.69166666666666, N
74925, 208.125, N
75153, 208.75833333333333, N
75480, 209.66666666666666, N
75752, 210.42222222222222, N
75950, 210.97222222222223, N
76108, 211.4111111111111, N
76257, 211.825, N
76509, 212.525, N
76705, 213.06944444444446, N
76991, 213.86388888888888, N
77149, 214.30277777777778, N
77267, 214.63055555555556, N
77566, 215.4611111111111, N
77732, 215.92222222222222, V
78112, 216.9777777777778, N
78269, 217.4138888888889, V
78554, 218.20555555555555, N
78818, 218.9388888888889, N
78951, 219.30833333333334, V
79285, 220.23611111111111, N
79447, 220.6861111111111, V
79797, 221.65833333333333, N
80070, 222.41666666666666, N
80306, 223.07222222222222, N
80440, 223.44444444444446, V
80575, 223.81944444444446, V
80998, 224.99444444444444, N
81125, 225.34722222222223, V
81384, 226.06666666666666, N
81643, 226.7861111111111, N
81870, 227.41666666666666, N
82131, 228.14166666666668, N
82395, 228.875, N
82669, 229.63611111111112, N
82972, 230.4777777777778, N
83172, 231.03333333333333, N
83357, 231.54722222222222, V
83686, 232.4611111111111, N
83889, 233.025, N
84049, 233.46944444444443, N
84295, 234.15277777777777, N
84564, 234.9, N
84815, 235.59722222222223, N
85108, 236.4111111111111, N
85322, 237.00555555555556, N
85452, 237.36666666666667, N
85592, 237.75555555555556, N
85834, 238.42777777777778, N
86051, 239.03055555555557, N
86292, 239.7, N
86491, 240.25277777777777, N
86812, 241.14444444444445, N
87090, 241.91666666666666, N
87322, 242.5611111111111, N
87614, 243.37222222222223, N
87868, 244.07777777777778, N
88127, 244.79722222222222, N
88378, 245.49444444444444, N
88536, 245.93333333333334, N
88787, 246.63055555555556, N
89009, 247.24722222222223, N
89238, 247.88333333333333, N
89459, 248.49722222222223, V
89662, 249.0611111111111, N
89791, 249.41944444444445, N
89930, 249.80555555555554, N
90073, 250.20277777777778, N
90195, 250.54166666666666, N
90305, 250.84722222222223, N
90513, 251.425, N
90782, 252.17222222222222, N
91084, 253.01111111111112, N
91386, 253.85, N
91626, 254.51666666666668, N
91766, 254.90555555555557, V
91883, 255.23055555555555, V
92118, 255.88333333333333, N
92276, 256.3222222222222, N
92633, 257.31388888888887, N
92787, 257.7416666666667, V
93193, 258.86944444444447, N
93431, 259.53055555555557, N
93664, 260.1777777777778, N
93957, 260.9916666666667, N
94091, 261.3638888888889, V
94249, 261.8027777777778, N
94462, 262.39444444444445, N
94670, 262.97222222222223, N
94991, 263.8638888888889, N
95282, 264.6722222222222, N
95638, 265.6611111111111, N
95814, 266.15, N
95938, 266.49444444444447, N
96256, 267.3777777777778, N
96417, 267.825, V
96747, 268.7416666666667, N
96818, 268.93888888888887, +
96885, 269.125, V
97019, 269.4972222222222, V
97151, 269.8638888888889, V
97315, 270.31944444444446, +
97395, 270.5416666666667, N
97637, 271.2138888888889, N
97930, 272.02777777777777, N
98150, 272.6388888888889, N
98412, 273.3666666666667, N
98697, 274.15833333333336, N
98851, 274.5861111111111, N
98980, 274.94444444444446, N
99113, 275.31388888888887, N
99245, 275.68055555555554, N
99662, 276.8388888888889, N
99807, 277.2416666666667, V
100167, 278.2416666666667, N
100315, 278.65277777777777, V
100444, 279.0111111111111, V
100693, 279.7027777777778, N
101119, 280.8861111111111, N
101286, 281.35, V
101522, 282.00555555555553, N
101776, 282.7111111111111, N
102048, 283.46666666666664, N
102308, 284.18888888888887, N
102629, 285.0805555555556, N
102853, 285.7027777777778, N
103108, 286.4111111111111, N
103243, 286.7861111111111, V
103512, 287.53333333333336, N
103660, 287.94444444444446, V
103783, 288.2861111111111, V
104017, 288.93611111111113, N
104204, 289.4555555555556, N
104521, 290.3361111111111, N
104704, 290.84444444444443, N
105105, 291.9583333333333, N
105261, 292.39166666666665, V
105585, 293.2916666666667, N
105822, 293.95, N
106011, 294.475, N
106260, 295.1666666666667, N
106410, 295.5833333333333, V
106649, 296.2472222222222, N
106872, 296.8666666666667, N
107105, 297.5138888888889, N
107386, 298.2944444444444, N
107653, 299.0361111111111, N
107841, 299.55833333333334, N
107973, 299.925, N
108206, 300.5722222222222, N
108475, 301.31944444444446, N
108537, 301.4916666666667, +
108616, 301.7111111111111, V
108747, 302.075, V
108858, 302.3833333333333, V
108985, 302.7361111111111, V
109079, 302.9972222222222, +
109110, 303.0833333333333, N
109293, 303.59166666666664, +
109377, 303.825, V
109526, 304.2388888888889, V
109632, 304.53333333333336, V
109779, 304.94166666666666, V
109919, 305.3305555555556, V
110045, 305.68055555555554, V
110153, 305.98055555555555, V
110316, 306.43333333333334, V
110455, 306.81944444444446, V
110710, 307.52777777777777, +
110807, 307.7972222222222, N
110959, 308.21944444444443, V
111223, 308.9527777777778, N
111368, 309.35555555555555, V
111520, 309.77777777777777, N
111742, 310.39444444444445, N
111872, 310.75555555555553, V
111996, 311.1, V
112138, 311.49444444444447, N
112410, 312.25, N
112748, 313.18888888888887, N
112938, 313.71666666666664, N
113259, 314.60833333333335, N
113445, 315.125, N
113684, 315.7888888888889, N
113821, 316.1694444444444, V
114100, 316.94444444444446, N
114352, 317.64444444444445, N
114603, 318.34166666666664, N
114764, 318.7888888888889, N
115034, 319.5388888888889, N
115299, 320.275, N
115474, 320.7611111111111, N
115741, 321.5027777777778, N
116010, 322.25, N
116284, 323.0111111111111, N
116431, 323.4194444444444, V
116585, 323.84722222222223, N
116730, 324.25, N
117007, 325.01944444444445, N
117279, 325.775, N
117525, 326.4583333333333, N
117734, 327.0388888888889, N
117868, 327.4111111111111, N
118012, 327.81111111111113, N
118236, 328.43333333333334, N
118378, 328.8277777777778, N
118541, 329.28055555555557, N
118764, 329.9, N
119039, 330.6638888888889, N
119299, 331.3861111111111, N
119642, 332.3388888888889, N
119918, 333.10555555555555, N
120185, 333.84722222222223, N
120363, 334.34166666666664, N
120608, 335.02222222222224, N
120856, 335.7111111111111, N
121024, 336.1777777777778, N
121271, 336.8638888888889, N
121549, 337.6361111111111, N
121713, 338.09166666666664, N
121845, 338.4583333333333, N
122076, 339.1, N
122392, 339.97777777777776, N
122530, 340.3611111111111, V
122660, 340.72222222222223, V
123038, 341.77222222222224, N
123196, 342.2111111111111, V
123462, 342.95, N
123622, 343.39444444444445, N
123757, 343.76944444444445, N
123894, 344.15, N
124025, 344.5138888888889, N
124265, 345.18055555555554, N
124447, 345.68611111111113, N
124684, 346.34444444444443, N
125015, 347.2638888888889, N
125215, 347.81944444444446, N
125355, 348.2083333333333, N
125735, 349.2638888888889, N
125910, 349.75, V
126169, 350.46944444444443, N
126398, 351.10555555555555, N
126605, 351.68055555555554, N
126911, 352.53055555555557, N
127056, 352.93333333333334, V
127238, 353.43888888888887, N
127415, 353.93055555555554, N
127650, 354.5833333333333, N
127969, 355.46944444444443, N
128195, 356.09722222222223, N
128484, 356.9, N
128723, 357.56388888888887, N
128852, 357.9222222222222, V
128983, 358.2861111111111, N
129098, 358.60555555555555, N
129218, 358.93888888888887, N
129464, 359.6222222222222, N
129597, 359.9916666666667, V
129853, 360.7027777777778, N
130252, 361.81111111111113, N
130501, 362.5027777777778, N
130857, 363.4916666666667, N
131106, 364.18333333333334, N
131344, 364.84444444444443, N
131758, 365.99444444444447, N
132031, 366.7527777777778, N
132364, 367.6777777777778, N
132646, 368.4611111111111, N
132968, 369.35555555555555, N
133202, 370.00555555555553, N
133555, 370.9861111111111, N
133848, 371.8, N
134074, 372.4277777777778, N
134406, 373.35, N
134626, 373.9611111111111, N
134818, 374.49444444444447, N
135057, 375.15833333333336, N
135293, 375.81388888888887, N
135615, 376.7083333333333, N
135781, 377.1694444444444, V
135887, 377.4638888888889, V
136299, 378.60833333333335, N
136464, 379.06666666666666, V
136679, 379.6638888888889, N
136814, 380.0388888888889, V
137044, 380.6777777777778, N
137223, 381.175, N
137353, 381.5361111111111, N
137472, 381.8666666666667, N
137697, 382.4916666666667, N
137855, 382.93055555555554, N
138004, 383.34444444444443, N
138242, 384.00555555555553, N
138386, 384.40555555555557, N
138504, 384.73333333333335, N
138772, 385.47777777777776, N
139045, 386.2361111111111, N
139172, 386.5888888888889, V
139436, 387.3222222222222, N
139637, 387.88055555555553, N
139810, 388.3611111111111, N
140039, 388.9972222222222, N
140288, 389.68888888888887, N
140400, 390.0, ~
140570, 390.47222222222223, N
140888, 391.35555555555555, N
141168, 392.1333333333333, N
141384, 392.73333333333335, ~
141483, 393.0083333333333, N
141708, 393.6333333333333, |
141768, 393.8, N
142024, 394.5111111111111, N
142310, 395.30555555555554, N
142529, 395.9138888888889, N
142799, 396.6638888888889, N
143056, 397.3777777777778, N
143234, 397.8722222222222, N
143450, 398.47222222222223, N
143590, 398.8611111111111, V
143848, 399.5777777777778, N
144124, 400.34444444444443, N
144315, 400.875, N
144537, 401.4916666666667, N
144699, 401.94166666666666, N
144930, 402.5833333333333, N
145084, 403.0111111111111, V
145320, 403.6666666666667, N
145524, 404.23333333333335, N
145654, 404.59444444444443, N
145774, 404.9277777777778, N
145917, 405.325, N
146047, 405.68611111111113, N
146168, 406.02222222222224, N
146291, 406.3638888888889, N
146440, 406.77777777777777, N
146757, 407.65833333333336, N
147025, 408.40277777777777, N
147266, 409.0722222222222, N
147495, 409.7083333333333, N
147752, 410.4222222222222, N
147895, 410.81944444444446, V
148012, 411.14444444444445, V
148131, 411.475, N
148438, 412.3277777777778, N
148567, 412.68611111111113, V
148743, 413.175, ~
148773, 413.2583333333333, N
148915, 413.65277777777777, N
149177, 414.38055555555553, N
149342, 414.8388888888889, V
149574, 415.48333333333335, N
149855, 416.2638888888889, N
150177, 417.15833333333336, N
150384, 417.73333333333335, N
150564, 418.23333333333335, N
150698, 418.60555555555555, N
150960, 419.3333333333333, N
151210, 420.02777777777777, N
151463, 420.73055555555555, N
151803, 421.675, N
152139, 422.60833333333335, N
152326, 423.1277777777778, N
152531, 423.6972222222222, N
152774, 424.3722222222222, N
153038, 425.10555555555555, N
153325, 425.90277777777777, N
153477, 426.325, V
153597, 426.65833333333336, V
153701, 426.9472222222222, ~
153858, 427.3833333333333, N
154123, 428.11944444444447, N
154267, 428.51944444444445, V
154399, 428.8861111111111, V
154617, 429.4916666666667, N
154866, 430.18333333333334, N
155013, 430.59166666666664, N
155263, 431.2861111111111, N
155489, 431.9138888888889, N
155880, 433.0, N
156097, 433.60277777777776, N
156443, 434.56388888888887, N
156709, 435.3027777777778, N
156950, 435.97222222222223, N
157206, 436.68333333333334, N
157362, 437.1166666666667, N
157721, 438.1138888888889, N
157869, 438.525, V
158103, 439.175, N
158357, 439.88055555555553, N
158609, 440.5805555555556, N
158866, 441.2944444444444, N
159007, 441.68611111111113, V
159143, 442.06388888888887, N
159456, 442.93333333333334, N
159610, 443.3611111111111, V
159862, 444.06111111111113, N
160201, 445.0027777777778, N
160408, 445.5777777777778, N
160685, 446.34722222222223, N
160830, 446.75, V
160955, 447.09722222222223, N
161193, 447.7583333333333, N
161340, 448.1666666666667, V
161599, 448.8861111111111, N
161740, 449.27777777777777, V
161888, 449.68888888888887, N
162033, 450.09166666666664, N
162314, 450.8722222222222, N
162534, 451.48333333333335, N
162929, 452.5805555555556, N
163079, 452.9972222222222, V
163333, 453.7027777777778, N
163470, 454.0833333333333, V
163696, 454.7111111111111, N
164028, 455.6333333333333, N
164222, 456.1722222222222, N
164470, 456.8611111111111, N
164709, 457.525, N
164942, 458.1722222222222, N
165136, 458.7111111111111, N
165276, 459.1, N
165560, 459.8888888888889, N
165715, 460.31944444444446, V
165930, 460.9166666666667, N
166229, 461.7472222222222, N
166532, 462.5888888888889, N
166897, 463.60277777777776, N
167059, 464.0527777777778, V
167423, 465.06388888888887, N
167742, 465.95, N
168009, 466.69166666666666, N
168151, 467.0861111111111, V
168326, 467.5722222222222, N
168631, 468.4194444444444, N
168827, 468.9638888888889, N
169007, 469.4638888888889, N
169151, 469.8638888888889, N
169291, 470.2527777777778, N
169424, 470.6222222222222, N
169553, 470.98055555555555, N
169807, 471.68611111111113, N
169952, 472.0888888888889, V
170229, 472.85833333333335, N
170404, 473.34444444444443, V
170633, 473.98055555555555, N
170770, 474.3611111111111, N
170892, 474.7, N
171176, 475.4888888888889, N
171319, 475.8861111111111, V
171639, 476.775, N
171810, 477.25, N
171964, 477.6777777777778, N
172163, 478.23055555555555, N
172460, 479.05555555555554, N
172661, 479.6138888888889, N
172795, 479.9861111111111, N
172950, 480.4166666666667, N
173081, 480.78055555555557, N
173233, 481.2027777777778, N
173301, 481.39166666666665, ~
173563, 482.11944444444447, N
173712, 482.53333333333336, V
173851, 482.9194444444444, N
174091, 483.5861111111111, N
174343, 484.2861111111111, N
174608, 485.02222222222224, N
174873, 485.7583333333333, N
175028, 486.18888888888887, N
175221, 486.725, N
175521, 487.55833333333334, N
175726, 488.1277777777778, N
175980, 488.8333333333333, N
176224, 489.5111111111111, N
176450, 490.1388888888889, N
176701, 490.8361111111111, ~
176775, 491.0416666666667, N
177029, 491.7472222222222, N
177255, 492.375, N
177414, 492.81666666666666, N
177676, 493.5444444444444, N
177882, 494.1166666666667, N
178032, 494.53333333333336, N
178277, 495.2138888888889, N
178411, 495.5861111111111, V
178550, 495.97222222222223, N
178799, 496.6638888888889, N
178983, 497.175, N
179233, 497.86944444444447, N
179379, 498.275, V
179527, 498.68611111111113, N
179668, 499.0777777777778, N
179805, 499.4583333333333, N
180048, 500.1333333333333, N
180200, 500.55555555555554, V
180369, 501.025, N
180577, 501.60277777777776, N
180855, 502.375, N
181035, 502.875, N
181158, 503.21666666666664, N
181301, 503.6138888888889, N
181528, 504.24444444444447, N
181764, 504.9, N
182113, 505.86944444444447, N
182260, 506.27777777777777, V
182606, 507.2388888888889, N
182880, 508.0, N
183131, 508.6972222222222, N
183265, 509.06944444444446, V
183404, 509.4555555555556, N
183536, 509.8222222222222, N
183839, 510.6638888888889, N
183892, 510.81111111111113, +
183995, 511.09722222222223, V
184123, 511.4527777777778, V
184249, 511.8027777777778, V
184354, 512.0944444444444, +
184391, 512.1972222222222, N
184699, 513.0527777777778, N
184829, 513.4138888888889, V
185061, 514.0583333333333, N
185330, 514.8055555555555, N
185655, 515.7083333333334, N
185825, 516.1805555555555, V
186127, 517.0194444444444, N
186465, 517.9583333333334, ~
186539, 518.1638888888889, N
186688, 518.5777777777778, V
186961, 519.3361111111111, N
187158, 519.8833333333333, N
187424, 520.6222222222223, N
187597, 521.1027777777778, N
187849, 521.8027777777778, N
188154, 522.65, N
188437, 523.4361111111111, N
188894, 524.7055555555555, N
189288, 525.8, N
189472, 526.3111111111111, N
189727, 527.0194444444444, N
189878, 527.4388888888889, V
189997, 527.7694444444444, V
190273, 528.5361111111112, N
190592, 529.4222222222222, N
190828, 530.0777777777778, N
191083, 530.7861111111112, N
191299, 531.3861111111111, N
191442, 531.7833333333333, N
191593, 532.2027777777778, N
191842, 532.8944444444444, N
191899, 533.0527777777778, ~
191976, 533.2666666666667, V
192101, 533.6138888888889, V
192306, 534.1833333333333, N
192688, 535.2444444444444, N
192922, 535.8944444444444, N
193085, 536.3472222222222, N
193304, 536.9555555555555, N
193491, 537.475, N
193604, 537.7888888888889, V
193732, 538.1444444444444, ~
193886, 538.5722222222222, N
194114, 539.2055555555555, N
194260, 539.6111111111111, N
194405, 540.0138888888889, N
194537, 540.3805555555556, N
194670, 540.75, N
194873, 541.3138888888889, N
195146, 542.0722222222222, N
195288, 542.4666666666667, V
195552, 543.2, N
195798, 543.8833333333333, N
195987, 544.4083333333333, N
196194, 544.9833333333333, N
196421, 545.6138888888889, N
196556, 545.9888888888889, N
196685, 546.3472222222222, N
196980, 547.1666666666666, N
197121, 547.5583333333333, V
197359, 548.2194444444444, N
197623, 548.9527777777778, N
197873, 549.6472222222222, N
198012, 550.0333333333333, N
198153, 550.425, N
198284, 550.7888888888889, N
198524, 551.4555555555555, N
198664, 551.8444444444444, V
198816, 552.2666666666667, N
199019, 552.8305555555555, N
199072, 552.9777777777778, ~
199150, 553.1944444444445, Q
199185, 553.2916666666666, ~
199777, 554.9361111111111, ~
199816, 555.0444444444445, N
200021, 555.6138888888889, N
200256, 556.2666666666667, N
200391, 556.6416666666667, ~
200518, 556.9944444444444, N
200777, 557.7138888888888, N
200977, 558.2694444444444, N
201184, 558.8444444444444, N
201454, 559.5944444444444, N
201658, 560.1611111111112, N
201835, 560.6527777777778, N
202007, 561.1305555555556, N
202312, 561.9777777777778, N
202510, 562.5277777777778, N
202721, 563.1138888888889, N
202873, 563.5361111111112, N
203014, 563.9277777777778, N
203210, 564.4722222222222, N
203406, 565.0166666666667, N
203623, 565.6194444444444, N
203843, 566.2305555555556, N
204033, 566.7583333333333, N
204201, 567.225, N
204448, 567.9111111111112, N
204581, 568.2805555555556, V
204762, 568.7833333333333, N
205034, 569.5388888888889, N
205268, 570.1888888888889, N
205518, 570.8833333333333, N
205750, 571.5277777777778, N
206006, 572.2388888888889, N
206160, 572.6666666666666, V
206400, 573.3333333333334, N
206541, 573.725, V
206766, 574.35, N
206936, 574.8222222222222, N
207177, 575.4916666666667, N
207343, 575.9527777777778, N
207489, 576.3583333333333, N
207791, 577.1972222222222, N
207936, 577.6, V
208197, 578.325, N
208548, 579.3, N
208806, 580.0166666666667, N
209037, 580.6583333333333, N
209280, 581.3333333333334, N
209509, 581.9694444444444, N
209679, 582.4416666666667, N
209771, 582.6972222222222, ~
209938, 583.1611111111112, N
210163, 583.7861111111112, N
210305, 584.1805555555555, N
210579, 584.9416666666667, N
210714, 585.3166666666667, V
210848, 585.6888888888889, N
211024, 586.1777777777778, |
211127, 586.4638888888888, ~
211201, 586.6694444444445, N
211328, 587.0222222222222, V
211712, 588.0888888888888, N
211871, 588.5305555555556, V
212196, 589.4333333333333, N
212392, 589.9777777777778, N
212611, 590.5861111111111, N
212751, 590.975, N
212873, 591.3138888888889, N
213179, 592.1638888888889, N
213330, 592.5833333333334, V
213608, 593.3555555555556, N
213752, 593.7555555555556, V
213889, 594.1361111111111, V
214150, 594.8611111111111, N
214442, 595.6722222222222, N
214711, 596.4194444444445, N
214951, 597.0861111111111, N
215210, 597.8055555555555, ~
215261, 597.9472222222222, N
215399, 598.3305555555555, V
215643, 599.0083333333333, N
215882, 599.6722222222222, N
216019, 600.0527777777778, N
216159, 600.4416666666667, N
216429, 601.1916666666667, N
216654, 601.8166666666667, N
216796, 602.2111111111111, N
216996, 602.7666666666667, N
217123, 603.1194444444444, V
217273, 603.5361111111112, N
217476, 604.1, N
217723, 604.7861111111112, N
217889, 605.2472222222223, ~
217954, 605.4277777777778, N
218193, 606.0916666666667, N
218418, 606.7166666666667, N
218583, 607.175, N
218819, 607.8305555555555, N
218977, 608.2694444444444, N
219199, 608.8861111111111, N
219450, 609.5833333333334, N
219586, 609.9611111111111, V
219859, 610.7194444444444, N
220111, 611.4194444444445, N
220372, 612.1444444444444, N
220613, 612.8138888888889, N
220754, 613.2055555555555, V
220870, 613.5277777777778, V
221020, 613.9444444444445, N
221208, 614.4666666666667, N
221430, 615.0833333333334, N
221588, 615.5222222222222, N
221804, 616.1222222222223, N
222018, 616.7166666666667, ~
222072, 616.8666666666667, N
222246, 617.35, N
222509, 618.0805555555555, N
222781, 618.8361111111111, N
222810, 618.9166666666666, ~
222917, 619.2138888888888, V
223036, 619.5444444444445, V
223345, 620.4027777777778, N
223489, 620.8027777777778, V
223698, 621.3833333333333, N
223891, 621.9194444444445, N
224091, 622.475, N
224338, 623.1611111111112, N
224433, 623.425, ~
224551, 623.7527777777777, N
224745, 624.2916666666666, N
224985, 624.9583333333334, N
225213, 625.5916666666667, N
225635, 626.7638888888889, N
225784, 627.1777777777778, V
226131, 628.1416666666667, N
226374, 628.8166666666667, N
226510, 629.1944444444445, V
226626, 629.5166666666667, V
226787, 629.9638888888888, N
226907, 630.2972222222222, V
227190, 631.0833333333334, N
227381, 631.6138888888889, N
227538, 632.05, N
227818, 632.8277777777778, N
227951, 633.1972222222222, V
228192, 633.8666666666667, N
228314, 634.2055555555555, V
228558, 634.8833333333333, N
228822, 635.6166666666667, N
229093, 636.3694444444444, N
229240, 636.7777777777778, N
229437, 637.325, N
229569, 637.6916666666667, V
229819, 638.3861111111111, N
230042, 639.0055555555556, N
230226, 639.5166666666667, N
230332, 639.8111111111111, N
230491, 640.2527777777777, N
230745, 640.9583333333334, N
230832, 641.2, +
230878, 641.3277777777778, V
230984, 641.6222222222223, V
231110, 641.9722222222222, V
231247, 642.3527777777778, V
231406, 642.7944444444445, +
231474, 642.9833333333333, N
231676, 643.5444444444445, N
231996, 644.4333333333333, N
232203, 645.0083333333333, N
232324, 645.3444444444444, N
232475, 645.7638888888889, N
232798, 646.6611111111112, N
232941, 647.0583333333333, V
233195, 647.7638888888889, N
233428, 648.4111111111112, N
233644, 649.0111111111111, N
233801, 649.4472222222222, N
234038, 650.1055555555556, N
234175, 650.4861111111111, V
234303, 650.8416666666667, N
234435, 651.2083333333334, N
234692, 651.9222222222222, N
234833, 652.3138888888889, V
235110, 653.0833333333334, N
235304, 653.6222222222223, N
235555, 654.3194444444445, N
235802, 655.0055555555556, N
236095, 655.8194444444445, N
236227, 656.1861111111111, V
236358, 656.55, V
236704, 657.5111111111111, N
236988, 658.3, N
237257, 659.0472222222222, N
237451, 659.5861111111111, N
237659, 660.1638888888889, N
237896, 660.8222222222222, N
238186, 661.6277777777777, N
238387, 662.1861111111111, N
238525, 662.5694444444445, N
238758, 663.2166666666667, N
239046, 664.0166666666667, N
239281, 664.6694444444445, N
239461, 665.1694444444445, N
239662, 665.7277777777778, N
239931, 666.475, N
240190, 667.1944444444445, N
240257, 667.3805555555556, +
240325, 667.5694444444445, V
240523, 668.1194444444444, N
240753, 668.7583333333333, N
240886, 669.1277777777777, V
241165, 669.9027777777778, N
241400, 670.5555555555555, N
241533, 670.925, V
241610, 671.1388888888889, +
241688, 671.3555555555556, N
241876, 671.8777777777777, |
241947, 672.075, N
242262, 672.95, N
242630, 673.9722222222222, N
242898, 674.7166666666667, N
243161, 675.4472222222222, N
243410, 676.1388888888889, N
243617, 676.7138888888888, N
243744, 677.0666666666667, N
243872, 677.4222222222222, N
244129, 678.1361111111111, N
244312, 678.6444444444444, N
244624, 679.5111111111111, N
244883, 680.2305555555556, N
245105, 680.8472222222222, N
245340, 681.5, N
245594, 682.2055555555555, N
245758, 682.6611111111112, N
246055, 683.4861111111111, N
246266, 684.0722222222222, N
246425, 684.5138888888889, N
246653, 685.1472222222222, N
246806, 685.5722222222222, N
247009, 686.1361111111111, N
247221, 686.725, N
247491, 687.475, N
247628, 687.8555555555556, V
247911, 688.6416666666667, N
248130, 689.25, N
248277, 689.6583333333333, N
248426, 690.0722222222222, N
248734, 690.9277777777778, N
248985, 691.625, N
249109, 691.9694444444444, V
249358, 692.6611111111112, N
249503, 693.0638888888889, N
249735, 693.7083333333334, N
249956, 694.3222222222222, N
250189, 694.9694444444444, N
250358, 695.4388888888889, N
250516, 695.8777777777777, N
250706, 696.4055555555556, N
250853, 696.8138888888889, N
250987, 697.1861111111111, N
251170, 697.6944444444445, N
251326, 698.1277777777777, N
251467, 698.5194444444444, N
251674, 699.0944444444444, N
251795, 699.4305555555555, V
251991, 699.975, N
252239, 700.6638888888889, N
252432, 701.2, N
252580, 701.6111111111111, N
252713, 701.9805555555556, N
252951, 702.6416666666667, N
253093, 703.0361111111112, V
253296, 703.6, N
253494, 704.15, N
253751, 704.8638888888889, N
253981, 705.5027777777777, N
254116, 705.8777777777777, N
254250, 706.25, N
254514, 706.9833333333333, N
254845, 707.9027777777778, N
255014, 708.3722222222223, V
255268, 709.0777777777778, N
255529, 709.8027777777778, N
255603, 710.0083333333333, +
255654, 710.15, V
255766, 710.4611111111111, V
255886, 710.7944444444445, V
256022, 711.1722222222222, +
256093, 711.3694444444444, N
256333, 712.0361111111112, N
256627, 712.8527777777778, N
256794, 713.3166666666667, N
257032, 713.9777777777778, N
257175, 714.375, V
257436, 715.1, N
257577, 715.4916666666667, V
257866, 716.2944444444445, N
258017, 716.7138888888888, V
258112, 716.9777777777778, V
258293, 717.4805555555556, N
258517, 718.1027777777778, N
258642, 718.45, V
258872, 719.0888888888888, N
259002, 719.45, V
259285, 720.2361111111111, N
259497, 720.825, N
259702, 721.3944444444444, N
259847, 721.7972222222222, N
260037, 722.325, N
260234, 722.8722222222223, N
260401, 723.3361111111111, N
260588, 723.8555555555556, N
260846, 724.5722222222222, N
260998, 724.9944444444444, N
261214, 725.5944444444444, N
261367, 726.0194444444444, N
261504, 726.4, N
261749, 727.0805555555555, N
262059, 727.9416666666667, N
262185, 728.2916666666666, V
262284, 728.5666666666667, V
262462, 729.0611111111111, N
262674, 729.65, N
262827, 730.075, N
262896, 730.2666666666667, |
263042, 730.6722222222222, N
263250, 731.25, N
263519, 731.9972222222223, N
263742, 732.6166666666667, N
263990, 733.3055555555555, N
264128, 733.6888888888889, V
264382, 734.3944444444444, N
264578, 734.9388888888889, N
264793, 735.5361111111112, N
264986, 736.0722222222222, N
265143, 736.5083333333333, N
265263, 736.8416666666667, N
265403, 737.2305555555556, N
265581, 737.725, N
265851, 738.475, N
266096, 739.1555555555556, N
266327, 739.7972222222222, N
266547, 740.4083333333333, N
266809, 741.1361111111111, N
266869, 741.3027777777778, +
266935, 741.4861111111111, V
267025, 741.7361111111111, V
267152, 742.0888888888888, V
267283, 742.4527777777778, V
267422, 742.8388888888888, +
267523, 743.1194444444444, N
267650, 743.4722222222222, V
267909, 744.1916666666667, N
268015, 744.4861111111111, ~
268118, 744.7722222222222, N
268381, 745.5027777777777, N
268530, 745.9166666666666, N
268837, 746.7694444444444, N
269092, 747.4777777777778, N
269218, 747.8277777777778, V
269331, 748.1416666666667, V
269455, 748.4861111111111, N
269679, 749.1083333333333, N
269882, 749.6722222222222, N
270056, 750.1555555555556, N
270279, 750.775, N
270474, 751.3166666666667, N
270675, 751.875, N
270795, 752.2083333333334, V
270926, 752.5722222222222, N
271102, 753.0611111111111, N
271372, 753.8111111111111, N
271497, 754.1583333333333, V
271624, 754.5111111111111, N
271858, 755.1611111111112, N
271997, 755.5472222222222, V
272212, 756.1444444444444, N
272513, 756.9805555555556, N
272787, 757.7416666666667, N
272866, 757.9611111111111, +
272920, 758.1111111111111, V
273045, 758.4583333333334, V
273157, 758.7694444444444, V
273277, 759.1027777777778, V
273375, 759.375, +
273531, 759.8083333333333, N
273705, 760.2916666666666, N
273952, 760.9777777777778, N
274079, 761.3305555555555, V
274313, 761.9805555555556, N
274572, 762.7, N
274790, 763.3055555555555, N
274990, 763.8611111111111, N
275063, 764.0638888888889, |
275229, 764.525, N
275356, 764.8777777777777, V
275467, 765.1861111111111, V
275589, 765.525, N
275740, 765.9444444444445, N
275862, 766.2833333333333, V
276150, 767.0833333333334, N
276283, 767.4527777777778, V
276483, 768.0083333333333, N
276672, 768.5333333333333, N
276887, 769.1305555555556, N
277053, 769.5916666666667, N
277246, 770.1277777777777, N
277453, 770.7027777777778, N
277674, 771.3166666666667, N
277889, 771.9138888888889, N
278028, 772.3, N
278139, 772.6083333333333, N
278273, 772.9805555555556, N
278500, 773.6111111111111, N
278738, 774.2722222222222, N
278868, 774.6333333333333, V
279006, 775.0166666666667, N
279154, 775.4277777777778, ~
279286, 775.7944444444445, N
279430, 776.1944444444445, N
279543, 776.5083333333333, N
279734, 777.0388888888889, N
279909, 777.525, N
280134, 778.15, N
280407, 778.9083333333333, N
280639, 779.5527777777778, N
280934, 780.3722222222223, N
281119, 780.8861111111111, N
281369, 781.5805555555555, N
281447, 781.7972222222222, +
281505, 781.9583333333334, V
281621, 782.2805555555556, V
281747, 782.6305555555556, V
281897, 783.0472222222222, +
281968, 783.2444444444444, N
282200, 783.8888888888889, N
282373, 784.3694444444444, N
282508, 784.7444444444444, N
282658, 785.1611111111112, N
282823, 785.6194444444444, N
283068, 786.3, N
283237, 786.7694444444444, N
283459, 787.3861111111111, N
283614, 787.8166666666667, N
283731, 788.1416666666667, N
283866, 788.5166666666667, N
284108, 789.1888888888889, N
284332, 789.8111111111111, N
284599, 790.5527777777778, N
284861, 791.2805555555556, N
285007, 791.6861111111111, N
285135, 792.0416666666666, N
285314, 792.5388888888889, N
285491, 793.0305555555556, N
285624, 793.4, N
285754, 793.7611111111111, N
285958, 794.3277777777778, N
286104, 794.7333333333333, N
286308, 795.3, N
286552, 795.9777777777778, N
286669, 796.3027777777778, V
286800, 796.6666666666666, N
287008, 797.2444444444444, N
287130, 797.5833333333334, V
287256, 797.9333333333333, V
287483, 798.5638888888889, N
287818, 799.4944444444444, N
287949, 799.8583333333333, V
288072, 800.2, V
288305, 800.8472222222222, N
288474, 801.3166666666667, N
288741, 802.0583333333333, N
288960, 802.6666666666666, N
289066, 802.9611111111111, V
289354, 803.7611111111111, N
289512, 804.2, N
289710, 804.75, N
289998, 805.55, N
290143, 805.9527777777778, N
290379, 806.6083333333333, N
290555, 807.0972222222222, N
290724, 807.5666666666667, N
291050, 808.4722222222222, N
291182, 808.8388888888888, V
291441, 809.5583333333333, N
291747, 810.4083333333333, N
291959, 810.9972222222223, N
292138, 811.4944444444444, N
292457, 812.3805555555556, N
292631, 812.8638888888889, N
292754, 813.2055555555555, N
292860, 813.5, N
293005, 813.9027777777778, N
293279, 814.6638888888889, N
293408, 815.0222222222222, V
293607, 815.575, N
293727, 815.9083333333333, N
293937, 816.4916666666667, N
294063, 816.8416666666667, V
294201, 817.225, N
294538, 818.1611111111112, N
294675, 818.5416666666666, V
294921, 819.225, N
295135, 819.8194444444445, N
295401, 820.5583333333333, N
295548, 820.9666666666667, N
295736, 821.4888888888889, N
295988, 822.1888888888889, N
296168, 822.6888888888889, N
296308, 823.0777777777778, N
296433, 823.425, N
296557, 823.7694444444444, N
296839, 824.5527777777778, N
296986, 824.9611111111111, N
297095, 825.2638888888889, N
297231, 825.6416666666667, N
297446, 826.2388888888889, N
297656, 826.8222222222222, N
297918, 827.55, N
298174, 828.2611111111111, N
298412, 828.9222222222222, N
298488, 829.1333333333333, ~
298560, 829.3333333333334, N
298681, 829.6694444444445, N
298799, 829.9972222222223, N
299046, 830.6833333333333, N
299148, 830.9666666666667, ~
299291, 831.3638888888889, N
299459, 831.8305555555555, N
299617, 832.2694444444444, N
299828, 832.8555555555556, N
300120, 833.6666666666666, N
300276, 834.1, N
300498, 834.7166666666667, N
300762, 835.45, N
300969, 836.025, N
301134, 836.4833333333333, N
301355, 837.0972222222222, N
301408, 837.2444444444444, ~
301498, 837.4944444444444, N
301626, 837.85, N
301745, 838.1805555555555, N
301893, 838.5916666666667, N
302146, 839.2944444444445, N
302290, 839.6944444444445, N
302363, 839.8972222222222, ~
302431, 840.0861111111111, N
302653, 840.7027777777778, N
302804, 841.1222222222223, V
303168, 842.1333333333333, N
303308, 842.5222222222222, V
303522, 843.1166666666667, N
303737, 843.7138888888888, N
303856, 844.0444444444445, N
304027, 844.5194444444444, N
304226, 845.0722222222222, N
304495, 845.8194444444445, N
304699, 846.3861111111111, N
304840, 846.7777777777778, N
305024, 847.2888888888889, N
305157, 847.6583333333333, N
305381, 848.2805555555556, N
305736, 849.2666666666667, N
305985, 849.9583333333334, N
306272, 850.7555555555556, N
306612, 851.7, N
306853, 852.3694444444444, N
306954, 852.65, ~
307029, 852.8583333333333, N
307297, 853.6027777777778, N
307430, 853.9722222222222, V
307750, 854.8611111111111, N
307985, 855.5138888888889, N
308095, 855.8194444444445, |
308414, 856.7055555555555, N
308584, 857.1777777777778, N
308814, 857.8166666666667, N
309134, 858.7055555555555, N
309470, 859.6388888888889, N
309837, 860.6583333333333, N
309996, 861.1, N
310130, 861.4722222222222, N
310255, 861.8194444444445, N
310487, 862.4638888888888, N
310748, 863.1888888888889, N
311052, 864.0333333333333, N
311298, 864.7166666666667, N
311532, 865.3666666666667, N
311819, 866.1638888888889, N
312025, 866.7361111111111, N
312234, 867.3166666666667, N
312376, 867.7111111111111, ~
312426, 867.85, N
312620, 868.3888888888889, N
312893, 869.1472222222222, N
313030, 869.5277777777778, V
313142, 869.8388888888888, V
313278, 870.2166666666667, N
313410, 870.5833333333334, N
313613, 871.1472222222222, N
313895, 871.9305555555555, N
314118, 872.55, N
314275, 872.9861111111111, N
314407, 873.3527777777778, N
314520, 873.6666666666666, N
314644, 874.0111111111111, N
314828, 874.5222222222222, N
315084, 875.2333333333333, N
315322, 875.8944444444444, N
315478, 876.3277777777778, N
315691, 876.9194444444445, N
315902, 877.5055555555556, N
316025, 877.8472222222222, N
316139, 878.1638888888889, N
316262, 878.5055555555556, N
316479, 879.1083333333333, N
316602, 879.45, V
316847, 880.1305555555556, N
317074, 880.7611111111111, N
317219, 881.1638888888889, N
317479, 881.8861111111111, N
317724, 882.5666666666667, N
317853, 882.925, V
317961, 883.225, ~
318000, 883.3333333333334, N
318172, 883.8111111111111, N
318415, 884.4861111111111, N
318607, 885.0194444444444, N
318707, 885.2972222222222, |
318755, 885.4305555555555, N
318833, 885.6472222222222, |
318891, 885.8083333333333, N
318994, 886.0944444444444, N
319210, 886.6944444444445, N
319430, 887.3055555555555, N
319652, 887.9222222222222, N
319797, 888.325, N
320056, 889.0444444444445, N
320296, 889.7111111111111, N
320418, 890.05, N
320774, 891.0388888888889, N
320907, 891.4083333333333, V
321220, 892.2777777777778, N
321421, 892.8361111111111, N
321666, 893.5166666666667, N
321891, 894.1416666666667, N
322036, 894.5444444444445, N
322167, 894.9083333333333, N
322304, 895.2888888888889, N
322445, 895.6805555555555, N
322583, 896.0638888888889, N
322872, 896.8666666666667, ~
322901, 896.9472222222222, N
323043, 897.3416666666667, V
323235, 897.875, N
323415, 898.375, N
323581, 898.8361111111111, N
323754, 899.3166666666667, N
323897, 899.7138888888888, N
324013, 900.0361111111112, N
324273, 900.7583333333333, N
324536, 901.4888888888889, N
324702, 901.95, N
324836, 902.3222222222222, N
324927, 902.575, ~
325043, 902.8972222222222, N
325169, 903.2472222222223, |
325282, 903.5611111111111, N
325434, 903.9833333333333, |
325480, 904.1111111111111, |
325526, 904.2388888888889, N
325672, 904.6444444444444, V
325972, 905.4777777777778, N
326224, 906.1777777777778, N
326376, 906.6, N
326572, 907.1444444444444, N
326696, 907.4888888888889, V
326730, 907.5833333333334, |
326956, 908.2111111111111, N
327173, 908.8138888888889, N
327408, 909.4666666666667, N
327640, 910.1111111111111, N
327794, 910.5388888888889, N
327940, 910.9444444444445, N
328160, 911.5555555555555, N
328359, 912.1083333333333, N
328670, 912.9722222222222, N
328914, 913.65, N
329167, 914.3527777777778, N
329295, 914.7083333333334, |
329324, 914.7888888888889, N
329459, 915.1638888888889, |
329567, 915.4638888888888, N
329584, 915.5111111111111, |
329642, 915.6722222222222, |
329692, 915.8111111111111, |
329730, 915.9166666666666, |
329813, 916.1472222222222, ~
329848, 916.2444444444444, N
329982, 916.6166666666667, V
330112, 916.9777777777778, V
330457, 917.9361111111111, N
330692, 918.5888888888888, N
330970, 919.3611111111111, N
331218, 920.05, N
331411, 920.5861111111111, N
331592, 921.0888888888888, N
331772, 921.5888888888888, N
331903, 921.9527777777778, N
332117, 922.5472222222222, N
332203, 922.7861111111112, ~
332341, 923.1694444444445, N
332500, 923.6111111111111, |
332624, 923.9555555555555, N
332744, 924.2888888888889, ~
332764, 924.3444444444444, V
332883, 924.675, V
333028, 925.0777777777778, N
333156, 925.4333333333333, N
333230, 925.6388888888889, ~
333364, 926.0111111111111, N
333663, 926.8416666666667, N
333808, 927.2444444444444, N
333928, 927.5777777777778, N
334189, 928.3027777777778, N
334455, 929.0416666666666, N
334725, 929.7916666666666, N
334878, 930.2166666666667, N
335145, 930.9583333333334, N
335403, 931.675, N
335566, 932.1277777777777, N
335738, 932.6055555555556, N
335993, 933.3138888888889, N
336179, 933.8305555555555, N
336307, 934.1861111111111, N
336540, 934.8333333333334, N
336697, 935.2694444444444, V
336915, 935.875, N
337173, 936.5916666666667, N
337464, 937.4, N
337685, 938.0138888888889, N
337953, 938.7583333333333, N
338300, 939.7222222222222, N
338520, 940.3333333333334, N
338719, 940.8861111111111, N
338982, 941.6166666666667, N
339348, 942.6333333333333, N
339590, 943.3055555555555, N
339893, 944.1472222222222, N
340029, 944.525, V
340157, 944.8805555555556, V
340295, 945.2638888888889, N
340409, 945.5805555555555, N
340626, 946.1833333333333, N
340776, 946.6, V
341067, 947.4083333333333, N
341409, 948.3583333333333, N
341693, 949.1472222222222, N
341991, 949.975, N
342281, 950.7805555555556, N
342496, 951.3777777777777, N
342725, 952.0138888888889, N
342880, 952.4444444444445, N
343116, 953.1, N
343313, 953.6472222222222, N
343615, 954.4861111111111, N
343889, 955.2472222222223, N
344105, 955.8472222222222, N
344246, 956.2388888888889, N
344371, 956.5861111111111, N
344510, 956.9722222222222, N
344737, 957.6027777777778, N
344903, 958.0638888888889, N
345131, 958.6972222222222, N
345490, 959.6944444444445, N
345780, 960.5, N
345966, 961.0166666666667, N
346265, 961.8472222222222, N
346540, 962.6111111111111, N
346883, 963.5638888888889, N
347096, 964.1555555555556, N
347247, 964.575, N
347370, 964.9166666666666, N
347500, 965.2777777777778, N
347640, 965.6666666666666, N
347925, 966.4583333333334, N
348082, 966.8944444444444, V
348307, 967.5194444444444, N
348433, 967.8694444444444, V
348713, 968.6472222222222, N
348912, 969.2, N
349130, 969.8055555555555, N
349361, 970.4472222222222, N
349648, 971.2444444444444, N
349880, 971.8888888888889, N
350187, 972.7416666666667, N
350412, 973.3666666666667, N
350556, 973.7666666666667, N
350666, 974.0722222222222, N
350910, 974.75, N
351054, 975.15, V
351265, 975.7361111111111, N
351506, 976.4055555555556, N
351868, 977.4111111111112, N
352169, 978.2472222222223, N
352364, 978.7888888888889, N
352701, 979.725, N
353013, 980.5916666666667, N
353313, 981.425, N
353512, 981.9777777777778, N
353785, 982.7361111111111, N
354094, 983.5944444444444, N
354377, 984.3805555555556, N
354628, 985.0777777777778, N
354884, 985.7888888888889, N
355198, 986.6611111111112, N
355471, 987.4194444444445, N
355699, 988.0527777777778, N
355832, 988.4222222222222, N
356138, 989.2722222222222, N
356289, 989.6916666666667, V
356416, 990.0444444444445, V
356683, 990.7861111111112, N
356952, 991.5333333333333, N
357326, 992.5722222222222, N
357754, 993.7611111111111, N
357894, 994.15, V
358360, 995.4444444444445, N
358590, 996.0833333333334, N
358733, 996.4805555555556, N
358868, 996.8555555555556, N
359200, 997.7777777777778, N
359359, 998.2194444444444, V
359679, 999.1083333333333, N
359930, 999.8055555555555, N
360316, 1000.8777777777777, N
360555, 1001.5416666666666, N
360691, 1001.9194444444445, N
361027, 1002.8527777777778, N
361319, 1003.6638888888889, N
361668, 1004.6333333333333, N
361892, 1005.2555555555556, N
362120, 1005.8888888888889, N
362379, 1006.6083333333333, N
362547, 1007.075, N
362776, 1007.7111111111111, N
363014, 1008.3722222222223, N
363142, 1008.7277777777778, V
363267, 1009.075, V
363434, 1009.5388888888889, N
363582, 1009.95, N
363726, 1010.35, N
363841, 1010.6694444444445, N
363969, 1011.025, N
364159, 1011.5527777777778, N
364349, 1012.0805555555555, N
364502, 1012.5055555555556, N
364743, 1013.175, N
364924, 1013.6777777777778, N
365202, 1014.45, N
365404, 1015.0111111111111, N
365743, 1015.9527777777778, N
365901, 1016.3916666666667, V
366237, 1017.325, N
366469, 1017.9694444444444, N
366679, 1018.5527777777778, N
367035, 1019.5416666666666, N
367318, 1020.3277777777778, N
367445, 1020.6805555555555, V
367583, 1021.0638888888889, N
367746, 1021.5166666666667, N
367989, 1022.1916666666667, N
368159, 1022.6638888888889, N
368334, 1023.15, N
368490, 1023.5833333333334, N
368832, 1024.5333333333333, N
368964, 1024.9, V
369215, 1025.5972222222222, N
369472, 1026.3111111111111, N
369706, 1026.9611111111112, N
369921, 1027.5583333333334, N
370185, 1028.2916666666667, N
370412, 1028.9222222222222, N
370543, 1029.286111111111, V
370759, 1029.8861111111112, N
370905, 1030.2916666666667, N
371146, 1030.9611111111112, N
371329, 1031.4694444444444, N
371570, 1032.138888888889, N
371780, 1032.7222222222222, N
371935, 1033.1527777777778, N
372069, 1033.525, N
372163, 1033.786111111111, ~
372298, 1034.161111111111, N
372431, 1034.5305555555556, V
372793, 1035.536111111111, N
372944, 1035.9555555555555, V
373115, 1036.4305555555557, N
373285, 1036.9027777777778, N
373648, 1037.911111111111, N
373788, 1038.3, V
373973, 1038.8138888888889, N
374110, 1039.1944444444443, N
374246, 1039.5722222222223, N
374611, 1040.5861111111112, N
374736, 1040.9333333333334, V
375143, 1042.0638888888889, N
375316, 1042.5444444444445, V
375538, 1043.161111111111, N
375675, 1043.5416666666667, ~
375801, 1043.8916666666667, N
376042, 1044.5611111111111, N
376376, 1045.4888888888888, N
376625, 1046.1805555555557, N
376944, 1047.0666666666666, N
377214, 1047.8166666666666, N
377340, 1048.1666666666667, V
377560, 1048.7777777777778, N
377825, 1049.513888888889, N
378061, 1050.1694444444445, N
378439, 1051.2194444444444, N
378600, 1051.6666666666667, V
378737, 1052.0472222222222, V
378974, 1052.7055555555555, N
379202, 1053.338888888889, N
379450, 1054.0277777777778, N
379579, 1054.3861111111112, V
379826, 1055.0722222222223, N
380080, 1055.7777777777778, N
380331, 1056.475, N
380480, 1056.888888888889, N
380909, 1058.0805555555555, N
381059, 1058.4972222222223, V
381334, 1059.2611111111112, N
381586, 1059.9611111111112, N
381808, 1060.5777777777778, N
381961, 1061.0027777777777, N
382247, 1061.7972222222222, N
382551, 1062.6416666666667, N
382871, 1063.5305555555556, N
383279, 1064.6638888888888, N
383464, 1065.1777777777777, N
383597, 1065.5472222222222, N
383827, 1066.1861111111111, N
383965, 1066.5694444444443, V
384315, 1067.5416666666667, N
384457, 1067.9361111111111, V
384749, 1068.7472222222223, N
385055, 1069.5972222222222, N
385203, 1070.0083333333334, V
385340, 1070.388888888889, V
385563, 1071.0083333333334, N
385946, 1072.0722222222223, N
386095, 1072.486111111111, V
386335, 1073.1527777777778, N
386600, 1073.888888888889, N
386877, 1074.6583333333333, N
386962, 1074.8944444444444, +
387025, 1075.0694444444443, V
387164, 1075.4555555555555, V
387292, 1075.8111111111111, V
387405, 1076.125, +
387445, 1076.236111111111, N
387694, 1076.9277777777777, N
387819, 1077.275, V
388147, 1078.1861111111111, N
388287, 1078.575, V
388584, 1079.4, N
388914, 1080.3166666666666, N
389289, 1081.3583333333333, N
389678, 1082.4388888888889, N
389936, 1083.1555555555556, N
390158, 1083.7722222222221, N
390289, 1084.1361111111112, V
390416, 1084.4888888888888, V
390790, 1085.5277777777778, N
390950, 1085.9722222222222, V
391334, 1087.0388888888888, N
391653, 1087.925, N
391996, 1088.8777777777777, N
392184, 1089.4, N
392374, 1089.9277777777777, N
392499, 1090.275, V
392762, 1091.0055555555555, N
393000, 1091.6666666666667, N
393270, 1092.4166666666667, N
393417, 1092.825, V
393730, 1093.6944444444443, N
393903, 1094.175, N
394137, 1094.825, N
394371, 1095.475, N
394510, 1095.861111111111, N
394702, 1096.3944444444444, N
394980, 1097.1666666666667, N
395186, 1097.7388888888888, N
395446, 1098.4611111111112, N
395788, 1099.411111111111, N
396028, 1100.0777777777778, N
396162, 1100.45, V
396276, 1100.7666666666667, V
396528, 1101.4666666666667, N
396821, 1102.2805555555556, N
396960, 1102.6666666666667, V
397075, 1102.986111111111, V
397326, 1103.6833333333334, N
397642, 1104.5611111111111, N
397967, 1105.463888888889, N
398309, 1106.4138888888888, N
398483, 1106.8972222222221, N
398782, 1107.7277777777779, N
399026, 1108.4055555555556, N
399317, 1109.213888888889, N
399590, 1109.9722222222222, N
399873, 1110.7583333333334, N
400044, 1111.2333333333333, N
400335, 1112.0416666666667, N
400528, 1112.5777777777778, N
400718, 1113.1055555555556, N
400907, 1113.6305555555555, N
401039, 1113.9972222222223, N
401233, 1114.536111111111, N
401536, 1115.3777777777777, N
401779, 1116.0527777777777, V
402058, 1116.8277777777778, N
402273, 1117.425, N
402660, 1118.5, N
402985, 1119.4027777777778, N
403178, 1119.9388888888889, N
403309, 1120.3027777777777, N
403454, 1120.7055555555555, N
403675, 1121.3194444444443, N
403808, 1121.6888888888889, V
403943, 1122.0638888888889, V
404077, 1122.4361111111111, N
404349, 1123.1916666666666, N
404601, 1123.8916666666667, N
404828, 1124.5222222222221, N
404973, 1124.925, N
405242, 1125.6722222222222, N
405315, 1125.875, +
405382, 1126.0611111111111, V
405506, 1126.4055555555556, V
405621, 1126.725, V
405731, 1127.0305555555556, +
405768, 1127.1333333333334, N
405955, 1127.6527777777778, N
406106, 1128.0722222222223, N
406473, 1129.0916666666667, N
406614, 1129.4833333333333, V
406930, 1130.361111111111, N
407195, 1131.0972222222222, N
407305, 1131.4027777777778, ~
407422, 1131.7277777777779, N
407654, 1132.3722222222223, N
407961, 1133.225, N
408267, 1134.075, N
408488, 1134.6888888888889, N
408676, 1135.2111111111112, N
408883, 1135.786111111111, N
409016, 1136.1555555555556, V
409135, 1136.486111111111, N
409254, 1136.8166666666666, N
409395, 1137.2083333333333, N
409510, 1137.5277777777778, N
409771, 1138.2527777777777, N
409814, 1138.3722222222223, ~
409907, 1138.6305555555555, V
410066, 1139.0722222222223, N
410188, 1139.411111111111, N
410456, 1140.1555555555556, N
410610, 1140.5833333333333, V
410955, 1141.5416666666667, N
411113, 1141.9805555555556, V
411331, 1142.5861111111112, N
411567, 1143.2416666666666, N
411859, 1144.0527777777777, N
412130, 1144.8055555555557, N
412517, 1145.8805555555555, N
412789, 1146.6361111111112, N
412934, 1147.0388888888888, N
413251, 1147.9194444444445, N
413310, 1148.0833333333333, +
413394, 1148.3166666666666, V
413504, 1148.6222222222223, V
413628, 1148.9666666666667, V
413805, 1149.4583333333333, +
413917, 1149.7694444444444, N
414057, 1150.1583333333333, V
414566, 1151.5722222222223, N
414725, 1152.013888888889, V
414945, 1152.625, N
415016, 1152.8222222222223, +
415080, 1153.0, V
415211, 1153.3638888888888, V
415325, 1153.6805555555557, V
415460, 1154.0555555555557, V
415623, 1154.5083333333334, +
415801, 1155.0027777777777, N
415937, 1155.3805555555555, V
416142, 1155.95, N
416339, 1156.4972222222223, N
416470, 1156.861111111111, N
416632, 1157.3111111111111, N
416889, 1158.025, N
417022, 1158.3944444444444, V
417151, 1158.7527777777777, V
417379, 1159.3861111111112, N
417684, 1160.2333333333333, N
417857, 1160.713888888889, V
418300, 1161.9444444444443, N
418446, 1162.35, V
418472, 1162.4222222222222, ~
418550, 1162.638888888889, |
418788, 1163.3, N
418944, 1163.7333333333333, V
419212, 1164.4777777777779, N
419400, 1165.0, N
419649, 1165.6916666666666, N
419878, 1166.3277777777778, N
420005, 1166.6805555555557, V
420274, 1167.4277777777777, N
420316, 1167.5444444444445, ~
420479, 1167.9972222222223, N
420702, 1168.6166666666666, N
421012, 1169.4777777777779, N
421186, 1169.9611111111112, N
421315, 1170.3194444444443, N
421627, 1171.1861111111111, N
421882, 1171.8944444444444, N
422136, 1172.6, N
422391, 1173.3083333333334, N
422520, 1173.6666666666667, V
422743, 1174.286111111111, N
422975, 1174.9305555555557, N
423287, 1175.7972222222222, N
423434, 1176.2055555555555, V
423717, 1176.9916666666666, N
424076, 1177.9888888888888, N
424343, 1178.7305555555556, N
424582, 1179.3944444444444, N
424741, 1179.8361111111112, N
424928, 1180.3555555555556, N
425226, 1181.1833333333334, N
425599, 1182.2194444444444, N
425796, 1182.7666666666667, N
426010, 1183.361111111111, N
426144, 1183.7333333333333, V
426263, 1184.0638888888889, V
426417, 1184.4916666666666, N
426690, 1185.25, N
426869, 1185.7472222222223, N
427177, 1186.6027777777779, N
427444, 1187.3444444444444, N
427692, 1188.0333333333333, N
427907, 1188.6305555555555, N
428127, 1189.2416666666666, N
428275, 1189.6527777777778, V
428402, 1190.0055555555555, N
428547, 1190.4083333333333, N
428679, 1190.775, N
428841, 1191.225, N
429035, 1191.763888888889, N
429312, 1192.5333333333333, N
429602, 1193.338888888889, N
429846, 1194.0166666666667, N
430035, 1194.5416666666667, N
430352, 1195.4222222222222, N
430625, 1196.1805555555557, N
430775, 1196.5972222222222, N
431085, 1197.4583333333333, N
431301, 1198.0583333333334, N
431447, 1198.463888888889, N
431574, 1198.8166666666666, N
431841, 1199.5583333333334, N
431992, 1199.9777777777779, V
432328, 1200.911111111111, N
432628, 1201.7444444444445, N
432888, 1202.4666666666667, N
432952, 1202.6444444444444, +
433022, 1202.838888888889, V
433160, 1203.2222222222222, V
433293, 1203.5916666666667, V
433425, 1203.9583333333333, +
433516, 1204.2111111111112, N
433781, 1204.9472222222223, N
433968, 1205.4666666666667, N
434181, 1206.0583333333334, N
434350, 1206.5277777777778, N
434559, 1207.1083333333333, N
434802, 1207.7833333333333, N
435083, 1208.5638888888889, N
435278, 1209.1055555555556, N
435504, 1209.7333333333333, N
435775, 1210.486111111111, N
435990, 1211.0833333333333, N
436255, 1211.8194444444443, N
436601, 1212.7805555555556, N
436754, 1213.2055555555555, V
436885, 1213.5694444444443, V
437107, 1214.1861111111111, N
437346, 1214.85, N
437478, 1215.2166666666667, V
437598, 1215.55, V
437760, 1216.0, N
437893, 1216.3694444444445, N
438028, 1216.7444444444445, N
438168, 1217.1333333333334, N
438433, 1217.8694444444445, N
438576, 1218.2666666666667, V
438800, 1218.888888888889, N
439049, 1219.5805555555555, N
439235, 1220.0972222222222, N
439372, 1220.4777777777779, N
439706, 1221.4055555555556, N
439836, 1221.7666666666667, V
440088, 1222.4666666666667, N
440342, 1223.1722222222222, N
440650, 1224.0277777777778, N
440888, 1224.6888888888889, N
441105, 1225.2916666666667, N
441418, 1226.161111111111, N
441723, 1227.0083333333334, N
441996, 1227.7666666666667, N
442191, 1228.3083333333334, N
442478, 1229.1055555555556, N
442815, 1230.0416666666667, N
443107, 1230.8527777777779, N
443412, 1231.7, N
443554, 1232.0944444444444, V
443696, 1232.4888888888888, N
444043, 1233.4527777777778, N
444186, 1233.85, V
444353, 1234.3138888888889, N
444525, 1234.7916666666667, N
444785, 1235.513888888889, N
445201, 1236.6694444444445, N
445620, 1237.8333333333333, N
445915, 1238.6527777777778, N
446213, 1239.4805555555556, N
446479, 1240.2194444444444, N
446733, 1240.925, N
446996, 1241.6555555555556, N
447182, 1242.1722222222222, N
447326, 1242.5722222222223, N
447462, 1242.95, N
447864, 1244.0666666666666, N
448018, 1244.4944444444445, V
448369, 1245.4694444444444, N
448592, 1246.088888888889, N
448942, 1247.0611111111111, N
449217, 1247.825, N
449368, 1248.2444444444445, N
449671, 1249.0861111111112, N
449986, 1249.9611111111112, N
450256, 1250.7111111111112, N
450519, 1251.4416666666666, N
450799, 1252.2194444444444, N
451082, 1253.0055555555555, N
451232, 1253.4222222222222, N
451361, 1253.7805555555556, N
451612, 1254.4777777777779, N
451777, 1254.9361111111111, N
452044, 1255.6777777777777, N
452373, 1256.5916666666667, N
452619, 1257.275, N
452758, 1257.661111111111, N
453118, 1258.661111111111, N
453267, 1259.075, V
453595, 1259.986111111111, N
453836, 1260.6555555555556, N
454071, 1261.3083333333334, N
454479, 1262.4416666666666, N
454844, 1263.4555555555555, N
455038, 1263.9944444444445, N
455164, 1264.3444444444444, N
455388, 1264.9666666666667, N
455619, 1265.6083333333333, N
455832, 1266.2, N
455990, 1266.638888888889, N
456275, 1267.4305555555557, N
456490, 1268.0277777777778, N
456734, 1268.7055555555555, N
456865, 1269.0694444444443, V
456976, 1269.3777777777777, V
457116, 1269.7666666666667, N
457181, 1269.9472222222223, ~
457223, 1270.0638888888889, |
457353, 1270.425, N
457467, 1270.7416666666666, N
457723, 1271.4527777777778, N
457947, 1272.075, N
458181, 1272.725, N
458345, 1273.1805555555557, N
458469, 1273.525, N
458578, 1273.8277777777778, N
458706, 1274.1833333333334, N
458848, 1274.5777777777778, N
459059, 1275.1638888888888, N
459225, 1275.625, N
459431, 1276.1972222222223, N
459694, 1276.9277777777777, N
459855, 1277.375, N
460076, 1277.9888888888888, N
460245, 1278.4583333333333, N
460427, 1278.963888888889, N
460578, 1279.3833333333334, N
460834, 1280.0944444444444, N
461088, 1280.8, N
461389, 1281.6361111111112, N
461692, 1282.4777777777779, N
461871, 1282.975, N
462020, 1283.388888888889, N
462152, 1283.7555555555555, N
462280, 1284.111111111111, N
462436, 1284.5444444444445, N
462659, 1285.1638888888888, N
462899, 1285.8305555555555, N
463038, 1286.2166666666667, N
463167, 1286.575, N
463354, 1287.0944444444444, N
463796, 1288.3222222222223, N
463930, 1288.6944444444443, V
464163, 1289.3416666666667, N
464368, 1289.911111111111, N
464675, 1290.763888888889, N
464936, 1291.4888888888888, N
465187, 1292.1861111111111, N
465454, 1292.9277777777777, N
465616, 1293.3777777777777, N
465961, 1294.3361111111112, N
466129, 1294.8027777777777, N
466450, 1295.6944444444443, N
466765, 1296.5694444444443, N
467093, 1297.4805555555556, N
467240, 1297.888888888889, V
467433, 1298.425, N
467632, 1298.9777777777779, N
467929, 1299.8027777777777, N
468077, 1300.213888888889, V
468399, 1301.1083333333333, N
468734, 1302.0388888888888, N
469007, 1302.7972222222222, N
469255, 1303.486111111111, N
469434, 1303.9833333333333, ~
469533, 1304.2583333333334, N
469787, 1304.963888888889, N
470048, 1305.6888888888889, N
470213, 1306.1472222222221, N
470504, 1306.9555555555555, N
470676, 1307.4333333333334, N
470798, 1307.7722222222221, N
470943, 1308.175, N
471288, 1309.1333333333334, N
471447, 1309.575, V
471796, 1310.5444444444445, N
471937, 1310.9361111111111, V
472169, 1311.5805555555555, N
472522, 1312.5611111111111, N
472798, 1313.3277777777778, N
473158, 1314.3277777777778, N
473432, 1315.088888888889, N
473645, 1315.6805555555557, N
473785, 1316.0694444444443, N
474002, 1316.6722222222222, N
474383, 1317.7305555555556, N
474801, 1318.8916666666667, N
475048, 1319.5777777777778, N
475356, 1320.4333333333334, N
475593, 1321.0916666666667, N
475829, 1321.7472222222223, N
476212, 1322.8111111111111, N
476456, 1323.4888888888888, N
476585, 1323.8472222222222, V
476909, 1324.7472222222223, N
477267, 1325.7416666666666, N
477560, 1326.5555555555557, N
477706, 1326.9611111111112, V
477818, 1327.2722222222221, V
478199, 1328.3305555555555, N
478340, 1328.7222222222222, V
478643, 1329.5638888888889, N
479023, 1330.6194444444445, N
479372, 1331.588888888889, N
479670, 1332.4166666666667, N
479951, 1333.1972222222223, N
480198, 1333.8833333333334, N
480450, 1334.5833333333333, N
480587, 1334.963888888889, V
480897, 1335.825, N
481141, 1336.5027777777777, N
481444, 1337.3444444444444, N
481695, 1338.0416666666667, N
481900, 1338.611111111111, N
482050, 1339.0277777777778, N
482182, 1339.3944444444444, N
482412, 1340.0333333333333, N
482599, 1340.5527777777777, N
482864, 1341.2888888888888, N
483122, 1342.0055555555555, N
483319, 1342.5527777777777, N
483504, 1343.0666666666666, N
483650, 1343.4722222222222, N
483865, 1344.0694444444443, N
484157, 1344.8805555555555, N
484360, 1345.4444444444443, N
484496, 1345.8222222222223, N
484630, 1346.1944444444443, N
484859, 1346.8305555555555, N
484981, 1347.1694444444445, V
485211, 1347.8083333333334, N
485378, 1348.2722222222221, N
485662, 1349.0611111111111, N
485907, 1349.7416666666666, N
486181, 1350.5027777777777, N
486328, 1350.911111111111, V
486666, 1351.85, N
486959, 1352.6638888888888, N
487186, 1353.2944444444445, N
487415, 1353.9305555555557, N
487703, 1354.7305555555556, N
487964, 1355.4555555555555, N
488318, 1356.4388888888889, N
488473, 1356.8694444444445, V
488842, 1357.8944444444444, N
489018, 1358.3833333333334, N
489294, 1359.15, N
489475, 1359.6527777777778, N
489689, 1360.2472222222223, N
489864, 1360.7333333333333, N
490088, 1361.3555555555556, N
490299, 1361.9416666666666, N
490446, 1362.35, N
490730, 1363.138888888889, N
490904, 1363.6222222222223, N
491131, 1364.2527777777777, N
491395, 1364.986111111111, N
491665, 1365.736111111111, N
491990, 1366.638888888889, N
492245, 1367.3472222222222, N
492531, 1368.1416666666667, N
492746, 1368.7388888888888, N
493015, 1369.486111111111, N
493256, 1370.1555555555556, N
493527, 1370.9083333333333, N
493681, 1371.3361111111112, N
493920, 1372.0, N
494324, 1373.1222222222223, N
494623, 1373.9527777777778, N
494854, 1374.5944444444444, N
495166, 1375.4611111111112, N
495386, 1376.0722222222223, N
495682, 1376.8944444444444, N
495914, 1377.5388888888888, N
496203, 1378.3416666666667, N
496475, 1379.0972222222222, N
496729, 1379.8027777777777, N
497065, 1380.736111111111, N
497269, 1381.3027777777777, N
497451, 1381.8083333333334, N
497725, 1382.5694444444443, N
497968, 1383.2444444444445, N
498164, 1383.7888888888888, N
498410, 1384.4722222222222, N
498616, 1385.0444444444445, N
498866, 1385.7388888888888, N
499134, 1386.4833333333333, N
499369, 1387.1361111111112, N
499686, 1388.0166666666667, N
499856, 1388.4888888888888, N
500096, 1389.1555555555556, N
500302, 1389.7277777777779, N
500469, 1390.1916666666666, N
500718, 1390.8833333333334, N
501032, 1391.7555555555555, N
501332, 1392.588888888889, N
501478, 1392.9944444444445, V
501570, 1393.25, V
501825, 1393.9583333333333, N
502052, 1394.588888888889, N
502251, 1395.1416666666667, N
502522, 1395.8944444444444, N
502830, 1396.75, N
503057, 1397.3805555555555, N
503264, 1397.9555555555555, N
503473, 1398.536111111111, N
503775, 1399.375, N
504014, 1400.0388888888888, N
504319, 1400.8861111111112, N
504535, 1401.486111111111, N
504711, 1401.975, N
504954, 1402.65, N
505168, 1403.2444444444445, N
505382, 1403.838888888889, N
505420, 1403.9444444444443, ~
505531, 1404.2527777777777, N
505675, 1404.6527777777778, N
505842, 1405.1166666666666, N
506060, 1405.7222222222222, N
506317, 1406.4361111111111, N
506531, 1407.0305555555556, N
506674, 1407.4277777777777, N
506813, 1407.8138888888889, N
506961, 1408.225, ~
507084, 1408.5666666666666, N
507238, 1408.9944444444445, N
507352, 1409.3111111111111, N
507468, 1409.6333333333334, N
507704, 1410.2888888888888, N
507863, 1410.7305555555556, N
508080, 1411.3333333333333, N
508337, 1412.0472222222222, N
508613, 1412.8138888888889, N
508756, 1413.2111111111112, N
508994, 1413.8722222222223, N
509025, 1413.9583333333333, ~
509142, 1414.2833333333333, N
509247, 1414.575, N
509363, 1414.8972222222221, N
509699, 1415.8305555555555, N
509832, 1416.2, V
510099, 1416.9416666666666, N
510244, 1417.3444444444444, V
510499, 1418.0527777777777, N
510711, 1418.6416666666667, N
510846, 1419.0166666666667, N
511110, 1419.75, N
511262, 1420.1722222222222, V
511402, 1420.5611111111111, N
511655, 1421.263888888889, N
511818, 1421.7166666666667, N
511994, 1422.2055555555555, N
512217, 1422.825, N
512350, 1423.1944444444443, V
512482, 1423.5611111111111, V
512751, 1424.3083333333334, N
512983, 1424.9527777777778, N
513271, 1425.7527777777777, N
513407, 1426.1305555555555, V
513664, 1426.8444444444444, N
513814, 1427.2611111111112, N
513944, 1427.6222222222223, N
514139, 1428.1638888888888, N
514406, 1428.9055555555556, N
514658, 1429.6055555555556, N
514827, 1430.075, N
514899, 1430.275, ~
515080, 1430.7777777777778, N
515293, 1431.3694444444445, N
515591, 1432.1972222222223, N
515910, 1433.0833333333333, N
516051, 1433.475, V
516182, 1433.838888888889, V
516442, 1434.5611111111111, N
516732, 1435.3666666666666, N
517062, 1436.2833333333333, N
517218, 1436.7166666666667, N
517494, 1437.4833333333333, N
517640, 1437.888888888889, V
517884, 1438.5666666666666, N
518079, 1439.1083333333333, N
518301, 1439.725, N
518437, 1440.1027777777779, V
518563, 1440.4527777777778, V
518833, 1441.2027777777778, N
518987, 1441.6305555555555, N
519181, 1442.1694444444445, N
519400, 1442.7777777777778, N
519617, 1443.3805555555555, N
519865, 1444.0694444444443, N
520031, 1444.5305555555556, N
520189, 1444.9694444444444, N
520321, 1445.3361111111112, N
520557, 1445.9916666666666, N
520851, 1446.8083333333334, N
521111, 1447.5305555555556, N
521295, 1448.0416666666667, N
521517, 1448.6583333333333, N
521765, 1449.3472222222222, N
521894, 1449.7055555555555, V
522217, 1450.6027777777779, N
522359, 1450.9972222222223, V
522491, 1451.3638888888888, V
522755, 1452.0972222222222, N
522916, 1452.5444444444445, N
523246, 1453.4611111111112, N
523508, 1454.1888888888889, N
523763, 1454.8972222222221, N
524057, 1455.713888888889, N
524374, 1456.5944444444444, N
524626, 1457.2944444444445, N
524776, 1457.7111111111112, N
525085, 1458.5694444444443, N
525251, 1459.0305555555556, V
525351, 1459.3083333333334, V
525602, 1460.0055555555555, N
525907, 1460.8527777777779, N
526101, 1461.3916666666667, N
526302, 1461.95, N
526446, 1462.35, N
526559, 1462.6638888888888, N
526813, 1463.3694444444445, N
527093, 1464.1472222222221, N
527425, 1465.0694444444443, N
527826, 1466.1833333333334, N
528075, 1466.875, N
528484, 1468.0111111111112, N
528834, 1468.9833333333333, N
529015, 1469.486111111111, N
529283, 1470.2305555555556, N
529610, 1471.138888888889, N
529845, 1471.7916666666667, N
529985, 1472.1805555555557, N
530197, 1472.7694444444444, N
530492, 1473.588888888889, N
530733, 1474.2583333333334, N
530881, 1474.6694444444445, N
531024, 1475.0666666666666, N
531155, 1475.4305555555557, N
531389, 1476.0805555555555, N
531619, 1476.7194444444444, N
531988, 1477.7444444444445, N
532196, 1478.3222222222223, N
532421, 1478.9472222222223, N
532601, 1479.4472222222223, ~
532667, 1479.6305555555555, N
532862, 1480.1722222222222, N
533183, 1481.0638888888889, N
533479, 1481.8861111111112, N
533903, 1483.0638888888889, N
534211, 1483.9194444444445, N
534352, 1484.3111111111111, V
534658, 1485.161111111111, N
534982, 1486.0611111111111, N
535181, 1486.6138888888888, N
535354, 1487.0944444444444, N
535459, 1487.3861111111112, |
535593, 1487.7583333333334, N
535833, 1488.425, N
535886, 1488.5722222222223, |
536100, 1489.1666666666667, Q
536392, 1489.9777777777779, Q
536660, 1490.7222222222222, Q
536969, 1491.5805555555555, N
537205, 1492.236111111111, N
537359, 1492.6638888888888, N
537657, 1493.4916666666666, N
537813, 1493.925, V
537998, 1494.4388888888889, N
538116, 1494.7666666666667, ~
538227, 1495.075, N
538562, 1496.0055555555555, N
538793, 1496.6472222222221, N
538860, 1496.8333333333333, +
538925, 1497.013888888889, V
539022, 1497.2833333333333, V
539143, 1497.6194444444445, V
539209, 1497.8027777777777, |
539292, 1498.0333333333333, +
539370, 1498.25, N
539537, 1498.713888888889, N
539636, 1498.9888888888888, ~
539831, 1499.5305555555556, N
540006, 1500.0166666666667, V
540205, 1500.5694444444443, ~
540396, 1501.1, N
540551, 1501.5305555555556, V
540677, 1501.8805555555555, V
540922, 1502.5611111111111, N
541098, 1503.05, N
541252, 1503.4777777777779, N
541469, 1504.0805555555555, N
541745, 1504.8472222222222, N
542032, 1505.6444444444444, N
542330, 1506.4722222222222, N
542621, 1507.2805555555556, N
542786, 1507.7388888888888, N
543032, 1508.4222222222222, N
543270, 1509.0833333333333, N
543571, 1509.9194444444445, N
543805, 1510.5694444444443, N
544031, 1511.1972222222223, N
544308, 1511.9666666666667, N
544537, 1512.6027777777779, N
544689, 1513.025, N
544943, 1513.7305555555556, N
545204, 1514.4555555555555, N
545500, 1515.2777777777778, N
545753, 1515.9805555555556, N
545904, 1516.4, N
546044, 1516.7888888888888, N
546160, 1517.111111111111, V
546377, 1517.713888888889, N
546538, 1518.161111111111, N
546829, 1518.9694444444444, N
547006, 1519.4611111111112, N
547163, 1519.8972222222221, N
547402, 1520.5611111111111, N
547557, 1520.9916666666666, N
547932, 1522.0333333333333, N
548083, 1522.4527777777778, V
548526, 1523.6833333333334, N
548948, 1524.8555555555556, N
549129, 1525.3583333333333, V
549357, 1525.9916666666666, N
549579, 1526.6083333333333, N
549705, 1526.9583333333333, V
549818, 1527.2722222222221, V
550002, 1527.7833333333333, N
550259, 1528.4972222222223, N
550495, 1529.1527777777778, N
550726, 1529.7944444444445, N
550987, 1530.5194444444444, N
551273, 1531.3138888888889, N
551436, 1531.7666666666667, N
551751, 1532.6416666666667, N
551974, 1533.2611111111112, N
552228, 1533.9666666666667, N
552477, 1534.6583333333333, N
552616, 1535.0444444444445, V
552803, 1535.5638888888889, N
552971, 1536.0305555555556, N
553242, 1536.7833333333333, N
553502, 1537.5055555555555, N
553719, 1538.1083333333333, N
553841, 1538.4472222222223, V
554056, 1539.0444444444445, N
554197, 1539.4361111111111, N
554425, 1540.0694444444443, N
554658, 1540.7166666666667, N
554863, 1541.286111111111, N
555119, 1541.9972222222223, N
555352, 1542.6444444444444, N
555650, 1543.4722222222222, N
555934, 1544.2611111111112, N
556212, 1545.0333333333333, N
556405, 1545.5694444444443, N
556642, 1546.2277777777779, N
556836, 1546.7666666666667, N
557080, 1547.4444444444443, N
557318, 1548.1055555555556, N
557526, 1548.6833333333334, N
557764, 1549.3444444444444, N
557991, 1549.975, N
558244, 1550.6777777777777, N
558380, 1551.0555555555557, V
558488, 1551.3555555555556, V
558624, 1551.7333333333333, N
558839, 1552.3305555555555, N
558979, 1552.7194444444444, V
559456, 1554.0444444444445, N
559606, 1554.4611111111112, V
559964, 1555.4555555555555, N
560201, 1556.1138888888888, N
560434, 1556.7611111111112, N
560692, 1557.4777777777779, N
560827, 1557.8527777777779, V
561097, 1558.6027777777779, N
561306, 1559.1833333333334, N
561483, 1559.675, N
561825, 1560.625, N
562140, 1561.5, N
562352, 1562.088888888889, N
562497, 1562.4916666666666, N
562751, 1563.1972222222223, N
562929, 1563.6916666666666, N
563076, 1564.1, N
563368, 1564.911111111111, N
563561, 1565.4472222222223, N
563850, 1566.25, N
563996, 1566.6555555555556, V
564248, 1567.3555555555556, N
564458, 1567.9388888888889, N
564818, 1568.9388888888889, N
564996, 1569.4333333333334, N
565162, 1569.8944444444444, N
565372, 1570.4777777777779, N
565575, 1571.0416666666667, N
565825, 1571.736111111111, N
566115, 1572.5416666666667, N
566424, 1573.4, N
566584, 1573.8444444444444, N
566864, 1574.6222222222223, N
567038, 1575.1055555555556, N
567403, 1576.1194444444445, N
567605, 1576.6805555555557, N
567740, 1577.0555555555557, N
567864, 1577.4, N
568106, 1578.0722222222223, N
568385, 1578.8472222222222, N
568536, 1579.2666666666667, V
568919, 1580.3305555555555, N
569070, 1580.75, V
569383, 1581.6194444444445, N
569817, 1582.825, N
570134, 1583.7055555555555, N
570400, 1584.4444444444443, N
570543, 1584.8416666666667, V
570764, 1585.4555555555555, N
571070, 1586.3055555555557, N
571210, 1586.6944444444443, V
571404, 1587.2333333333333, N
571705, 1588.0694444444443, N
572068, 1589.0777777777778, N
572273, 1589.6472222222221, N
572471, 1590.1972222222223, N
572705, 1590.8472222222222, N
572985, 1591.625, N
573223, 1592.286111111111, N
573357, 1592.6583333333333, V
573480, 1593.0, V
573782, 1593.838888888889, N
574021, 1594.5027777777777, N
574243, 1595.1194444444445, N
574387, 1595.5194444444444, N
574639, 1596.2194444444444, N
574906, 1596.9611111111112, N
575300, 1598.0555555555557, N
575463, 1598.5083333333334, N
575618, 1598.9388888888889, N
575853, 1599.5916666666667, N
576094, 1600.2611111111112, N
576394, 1601.0944444444444, N
576552, 1601.5333333333333, V
576791, 1602.1972222222223, N
576999, 1602.775, N
577294, 1603.5944444444444, N
577433, 1603.9805555555556, V
577647, 1604.575, N
577873, 1605.2027777777778, N
577952, 1605.4222222222222, +
578000, 1605.5555555555557, V
578105, 1605.8472222222222, V
578228, 1606.1888888888889, V
578347, 1606.5194444444444, V
578472, 1606.8666666666666, V
578595, 1607.2083333333333, V
578717, 1607.5472222222222, V
578810, 1607.8055555555557, +
578857, 1607.9361111111111, N
578977, 1608.2694444444444, N
579134, 1608.7055555555555, N
579265, 1609.0694444444443, N
579384, 1609.4, N
579533, 1609.8138888888889, N
579671, 1610.1972222222223, N
579904, 1610.8444444444444, N
580212, 1611.7, N
580358, 1612.1055555555556, V
580488, 1612.4666666666667, N
580875, 1613.5416666666667, N
581107, 1614.1861111111111, N
581251, 1614.5861111111112, N
581504, 1615.2888888888888, N
581655, 1615.7083333333333, V
581770, 1616.0277777777778, V
581961, 1616.5583333333334, N
582221, 1617.2805555555556, N
582448, 1617.911111111111, N
582758, 1618.7722222222221, N
582948, 1619.3, V
583154, 1619.8722222222223, N
583302, 1620.2833333333333, N
583529, 1620.9138888888888, N
583816, 1621.7111111111112, N
584122, 1622.5611111111111, N
584424, 1623.4, N
584636, 1623.9888888888888, N
584869, 1624.6361111111112, N
585019, 1625.0527777777777, N
585362, 1626.0055555555555, N
585536, 1626.4888888888888, N
585845, 1627.3472222222222, N
586004, 1627.7888888888888, V
586292, 1628.588888888889, N
586516, 1629.2111111111112, N
586906, 1630.2944444444445, N
587132, 1630.9222222222222, N
587381, 1631.6138888888888, N
587677, 1632.4361111111111, N
587884, 1633.0111111111112, N
588034, 1633.4277777777777, N
588299, 1634.1638888888888, N
588554, 1634.8722222222223, N
588768, 1635.4666666666667, N
589101, 1636.3916666666667, N
589340, 1637.0555555555557, N
589665, 1637.9583333333333, N
589753, 1638.2027777777778, +
589815, 1638.375, V
589942, 1638.7277777777779, V
590081, 1639.1138888888888, V
590265, 1639.625, +
590307, 1639.7416666666666, N
590624, 1640.6222222222223, N
590792, 1641.088888888889, V
591055, 1641.8194444444443, N
591314, 1642.5388888888888, N
591591, 1643.3083333333334, N
591865, 1644.0694444444443, N
592152, 1644.8666666666666, N
592447, 1645.6861111111111, N
592651, 1646.2527777777777, N
592866, 1646.85, N
593156, 1647.6555555555556, N
593370, 1648.25, N
593511, 1648.6416666666667, N
593768, 1649.3555555555556, N
594049, 1650.1361111111112, N
594293, 1650.8138888888889, N
594607, 1651.6861111111111, N
594888, 1652.4666666666667, N
595136, 1653.1555555555556, N
595386, 1653.85, N
595641, 1654.5583333333334, N
595878, 1655.2166666666667, N
596163, 1656.0083333333334, N
596506, 1656.9611111111112, N
596656, 1657.3777777777777, V
596790, 1657.75, V
597017, 1658.3805555555555, N
597160, 1658.7777777777778, N
597380, 1659.388888888889, N
597641, 1660.1138888888888, N
597811, 1660.5861111111112, N
598085, 1661.3472222222222, N
598263, 1661.8416666666667, N
598490, 1662.4722222222222, N
598780, 1663.2777777777778, N
599024, 1663.9555555555555, N
599261, 1664.6138888888888, N
599400, 1665.0, V
599517, 1665.325, V
599753, 1665.9805555555556, N
599888, 1666.3555555555556, V
600205, 1667.236111111111, N
600499, 1668.0527777777777, N
600660, 1668.5, N
600910, 1669.1944444444443, N
601192, 1669.9777777777779, N
601377, 1670.4916666666666, N
601609, 1671.1361111111112, N
601737, 1671.4916666666666, V
601948, 1672.0777777777778, N
602161, 1672.6694444444445, N
602429, 1673.4138888888888, N
602740, 1674.2777777777778, N
602899, 1674.7194444444444, N
603020, 1675.0555555555557, N
603150, 1675.4166666666667, N
603277, 1675.7694444444444, N
603528, 1676.4666666666667, N
603671, 1676.8638888888888, V
603776, 1677.1555555555556, V
604025, 1677.8472222222222, N
604154, 1678.2055555555555, N
604418, 1678.9388888888889, N
604684, 1679.6777777777777, N
605020, 1680.611111111111, N
605338, 1681.4944444444445, N
605673, 1682.425, N
605859, 1682.9416666666666, N
606008, 1683.3555555555556, N
606210, 1683.9166666666667, N
606446, 1684.5722222222223, N
606640, 1685.111111111111, N
606773, 1685.4805555555556, N
606971, 1686.0305555555556, N
607141, 1686.5027777777777, N
607460, 1687.388888888889, N
607741, 1688.1694444444445, N
607878, 1688.55, V
608067, 1689.075, N
608260, 1689.611111111111, N
608506, 1690.2944444444445, N
608780, 1691.0555555555557, N
609047, 1691.7972222222222, N
609272, 1692.4222222222222, N
609534, 1693.15, N
609858, 1694.05, N
610184, 1694.9555555555555, N
610519, 1695.8861111111112, N
610599, 1696.1083333333333, +
610665, 1696.2916666666667, V
610762, 1696.5611111111111, V
610885, 1696.9027777777778, V
611015, 1697.263888888889, V
611153, 1697.6472222222221, +
611222, 1697.838888888889, N
611466, 1698.5166666666667, N
611758, 1699.3277777777778, N
612011, 1700.0305555555556, N
612145, 1700.4027777777778, V
612366, 1701.0166666666667, N
612646, 1701.7944444444445, N
612801, 1702.225, N
613084, 1703.0111111111112, N
613395, 1703.875, N
613675, 1704.6527777777778, N
614034, 1705.65, N
614444, 1706.7888888888888, N
614720, 1707.5555555555557, N
614949, 1708.1916666666666, N
615202, 1708.8944444444444, N
615478, 1709.661111111111, N
615780, 1710.5, N
615950, 1710.9722222222222, N
616219, 1711.7194444444444, N
616449, 1712.3583333333333, N
616838, 1713.4388888888889, N
617059, 1714.0527777777777, N
617349, 1714.8583333333333, N
617584, 1715.5111111111112, N
617862, 1716.2833333333333, N
618197, 1717.213888888889, N
618518, 1718.1055555555556, N
618747, 1718.7416666666666, N
618990, 1719.4166666666667, N
619122, 1719.7833333333333, V
619257, 1720.1583333333333, V
619498, 1720.8277777777778, N
619655, 1721.263888888889, N
619798, 1721.661111111111, N
620022, 1722.2833333333333, N
620161, 1722.6694444444445, V
620293, 1723.036111111111, V
620517, 1723.6583333333333, N
620924, 1724.7888888888888, N
621202, 1725.5611111111111, N
621726, 1727.0166666666667, N
621979, 1727.7194444444444, N
622258, 1728.4944444444445, N
622401, 1728.8916666666667, V
622587, 1729.4083333333333, N
622709, 1729.7472222222223, F
622950, 1730.4166666666667, N
623177, 1731.0472222222222, N
623391, 1731.6416666666667, N
623597, 1732.213888888889, N
623816, 1732.8222222222223, N
623950, 1733.1944444444443, V
624067, 1733.5194444444444, V
624205, 1733.9027777777778, N
624340, 1734.2777777777778, N
624596, 1734.9888888888888, N
624745, 1735.4027777777778, V
625012, 1736.1444444444444, N
625312, 1736.9777777777779, N
625532, 1737.588888888889, N
625846, 1738.4611111111112, N
626100, 1739.1666666666667, N
626247, 1739.575, N
626596, 1740.5444444444445, N
626930, 1741.4722222222222, N
627081, 1741.8916666666667, V
627421, 1742.8361111111112, N
627763, 1743.786111111111, N
627958, 1744.3277777777778, N
628203, 1745.0083333333334, N
628362, 1745.45, N
628629, 1746.1916666666666, N
628952, 1747.088888888889, N
629261, 1747.9472222222223, N
629473, 1748.536111111111, N
629730, 1749.25, N
629882, 1749.6722222222222, N
630027, 1750.075, N
630165, 1750.4583333333333, N
630288, 1750.8, N
630518, 1751.4388888888889, N
630802, 1752.2277777777779, N
631072, 1752.9777777777779, N
631302, 1753.6166666666666, N
631533, 1754.2583333333334, N
631763, 1754.8972222222221, N
631996, 1755.5444444444445, N
632270, 1756.3055555555557, N
632495, 1756.9305555555557, N
632641, 1757.3361111111112, N
632754, 1757.65, N
632970, 1758.25, N
633252, 1759.0333333333333, N
633503, 1759.7305555555556, N
633649, 1760.1361111111112, N
633805, 1760.5694444444443, N
634085, 1761.3472222222222, N
634268, 1761.8555555555556, N
634517, 1762.5472222222222, N
634831, 1763.4194444444445, N
635037, 1763.9916666666666, N
635321, 1764.7805555555556, N
635472, 1765.2, V
635773, 1766.036111111111, N
635974, 1766.5944444444444, N
636115, 1766.986111111111, N
636230, 1767.3055555555557, N
636453, 1767.925, N
636721, 1768.6694444444445, N
637096, 1769.7111111111112, N
637475, 1770.763888888889, N
637744, 1771.5111111111112, N
637980, 1772.1666666666667, N
638114, 1772.5388888888888, V
638341, 1773.1694444444445, N
638590, 1773.861111111111, N
638853, 1774.5916666666667, N
639139, 1775.3861111111112, N
639409, 1776.1361111111112, N
639558, 1776.55, N
639860, 1777.388888888889, N
640051, 1777.9194444444445, N
640201, 1778.3361111111112, N
640533, 1779.2583333333334, N
640770, 1779.9166666666667, N
640927, 1780.3527777777779, N
641045, 1780.6805555555557, N
641303, 1781.3972222222221, N
641504, 1781.9555555555555, N
641707, 1782.5194444444444, N
641974, 1783.2611111111112, N
642222, 1783.95, N
642430, 1784.5277777777778, N
642729, 1785.3583333333333, N
643052, 1786.2555555555555, N
643366, 1787.1277777777777, N
643615, 1787.8194444444443, N
643851, 1788.475, N
644002, 1788.8944444444444, N
644143, 1789.286111111111, N
644269, 1789.6361111111112, N
644532, 1790.3666666666666, N
644679, 1790.775, V
644894, 1791.3722222222223, N
645050, 1791.8055555555557, N
645243, 1792.3416666666667, N
645415, 1792.8194444444443, N
645639, 1793.4416666666666, N
645916, 1794.2111111111112, N
646068, 1794.6333333333334, N
646223, 1795.0638888888889, N
646477, 1795.7694444444444, N
646631, 1796.1972222222223, N
646879, 1796.8861111111112, N
647140, 1797.611111111111, N
647439, 1798.4416666666666, N
647682, 1799.1166666666666, N
648057, 1800.1583333333333, N
648300, 1800.8333333333333, N
648671, 1801.8638888888888, N
649017, 1802.825, N
649237, 1803.4361111111111, N
649448, 1804.0222222222221, N
649777, 1804.9361111111111, N
