15, 0.041666666666666664, +
229, 0.6361111111111111, N
466, 1.2944444444444445, N
706, 1.961111111111111, N
944, 2.6222222222222222, N
1188, 3.3, N
1430, 3.9722222222222223, N
1671, 4.641666666666667, N
1902, 5.283333333333333, N
2145, 5.958333333333333, N
2393, 6.647222222222222, N
2636, 7.322222222222222, N
2873, 7.980555555555555, N
3113, 8.647222222222222, N
3354, 9.316666666666666, N
3594, 9.983333333333333, N
3840, 10.666666666666666, N
4084, 11.344444444444445, N
4324, 12.011111111111111, N
4561, 12.669444444444444, N
4806, 13.35, N
5059, 14.052777777777777, N
5302, 14.727777777777778, N
5543, 15.397222222222222, N
5783, 16.06388888888889, N
6024, 16.733333333333334, N
6266, 17.405555555555555, N
6513, 18.091666666666665, N
6753, 18.758333333333333, N
6991, 19.419444444444444, N
7228, 20.07777777777778, N
7471, 20.752777777777776, N
7709, 21.413888888888888, N
7948, 22.07777777777778, N
8181, 22.725, N
8420, 23.38888888888889, N
8654, 24.038888888888888, N
8899, 24.719444444444445, N
9140, 25.38888888888889, N
9375, 26.041666666666668, N
9611, 26.697222222222223, N
9851, 27.363888888888887, N
10097, 28.04722222222222, N
10338, 28.716666666666665, N
10575, 29.375, N
10810, 30.02777777777778, N
11044, 30.677777777777777, N
11279, 31.330555555555556, N
11520, 32.0, N
11767, 32.68611111111111, N
12000, 33.333333333333336, N
12237, 33.99166666666667, N
12475, 34.65277777777778, N
12722, 35.33888888888889, N
12961, 36.00277777777778, N
13203, 36.675, N
13442, 37.33888888888889, N
13686, 38.016666666666666, N
13925, 38.68055555555556, N
14170, 39.361111111111114, N
14420, 40.05555555555556, N
14663, 40.730555555555554, N
14902, 41.394444444444446, N
15146, 42.07222222222222, N
15394, 42.76111111111111, N
15640, 43.44444444444444, N
15877, 44.102777777777774, N
16118, 44.772222222222226, N
16357, 45.43611111111111, N
16598, 46.105555555555554, N
16843, 46.78611111111111, N
17088, 47.46666666666667, N
17326, 48.12777777777778, N
17562, 48.78333333333333, N
17804, 49.455555555555556, N
18050, 50.138888888888886, N
18293, 50.81388888888889, N
18531, 51.475, N
18770, 52.138888888888886, N
19009, 52.80277777777778, N
19251, 53.475, N
19500, 54.166666666666664, N
19738, 54.827777777777776, N
19981, 55.50277777777778, N
20218, 56.16111111111111, N
20464, 56.84444444444444, N
20709, 57.525, N
20953, 58.202777777777776, N
21192, 58.86666666666667, N
21435, 59.541666666666664, N
21675, 60.208333333333336, N
21927, 60.90833333333333, N
22176, 61.6, N
22420, 62.27777777777778, N
22659, 62.94166666666667, N
22902, 63.61666666666667, N
23150, 64.30555555555556, N
23393, 64.98055555555555, N
23631, 65.64166666666667, N
23871, 66.30833333333334, N
24110, 66.97222222222223, N
24346, 67.62777777777778, N
24589, 68.30277777777778, N
24835, 68.98611111111111, N
25070, 69.63888888888889, N
25306, 70.29444444444445, N
25546, 70.96111111111111, N
25791, 71.64166666666667, N
26028, 72.3, N
26267, 72.96388888888889, N
26504, 73.62222222222222, N
26745, 74.29166666666667, N
26984, 74.95555555555555, N
27226, 75.62777777777778, N
27467, 76.29722222222222, N
27705, 76.95833333333333, N
27945, 77.625, N
28190, 78.30555555555556, N
28439, 78.99722222222222, N
28679, 79.66388888888889, N
28913, 80.31388888888888, N
29150, 80.97222222222223, N
29392, 81.64444444444445, N
29634, 82.31666666666666, N
29875, 82.98611111111111, N
30115, 83.65277777777777, N
30353, 84.31388888888888, N
30595, 84.98611111111111, N
30840, 85.66666666666667, N
31087, 86.35277777777777, N
31331, 87.03055555555555, N
31567, 87.68611111111112, N
31804, 88.34444444444445, N
32042, 89.00555555555556, N
32285, 89.68055555555556, N
32529, 90.35833333333333, N
32769, 91.025, N
33009, 91.69166666666666, N
33242, 92.33888888888889, N
33483, 93.00833333333334, N
33725, 93.68055555555556, N
33964, 94.34444444444445, N
34198, 94.99444444444444, N
34433, 95.64722222222223, N
34669, 96.30277777777778, N
34911, 96.975, N
35155, 97.65277777777777, N
35395, 98.31944444444444, N
35634, 98.98333333333333, N
35870, 99.63888888888889, N
36112, 100.31111111111112, N
36354, 100.98333333333333, N
36594, 101.65, N
36828, 102.3, N
37063, 102.95277777777778, N
37300, 103.61111111111111, N
37540, 104.27777777777777, N
37782, 104.95, N
38016, 105.6, N
38255, 106.26388888888889, N
38487, 106.90833333333333, N
38729, 107.58055555555555, N
38966, 108.2388888888889, N
39205, 108.90277777777777, N
39438, 109.55, N
39671, 110.19722222222222, N
39907, 110.85277777777777, N
40149, 111.525, N
40388, 112.18888888888888, N
40625, 112.84722222222223, N
40861, 113.50277777777778, N
41096, 114.15555555555555, N
41334, 114.81666666666666, N
41572, 115.47777777777777, N
41812, 116.14444444444445, N
42042, 116.78333333333333, N
42272, 117.42222222222222, N
42507, 118.075, N
42744, 118.73333333333333, N
42983, 119.39722222222223, N
43217, 120.04722222222222, N
43454, 120.70555555555555, N
43687, 121.35277777777777, N
43928, 122.02222222222223, N
44170, 122.69444444444444, N
44412, 123.36666666666666, N
44647, 124.01944444444445, N
44888, 124.68888888888888, N
45127, 125.35277777777777, N
45373, 126.03611111111111, N
45619, 126.71944444444445, N
45858, 127.38333333333334, N
46099, 128.05277777777778, N
46340, 128.72222222222223, N
46586, 129.40555555555557, N
46827, 130.075, N
47067, 130.74166666666667, N
47306, 131.40555555555557, N
47544, 132.06666666666666, N
47783, 132.73055555555555, N
48023, 133.3972222222222, N
48268, 134.07777777777778, N
48505, 134.73611111111111, N
48746, 135.40555555555557, N
48989, 136.08055555555555, N
49239, 136.775, N
49476, 137.43333333333334, N
49715, 138.09722222222223, N
49952, 138.75555555555556, N
50197, 139.4361111111111, N
50435, 140.09722222222223, N
50680, 140.77777777777777, N
50918, 141.4388888888889, N
51159, 142.10833333333332, N
51393, 142.75833333333333, N
51635, 143.43055555555554, N
51879, 144.10833333333332, N
52119, 144.775, N
52353, 145.425, N
52590, 146.08333333333334, N
52830, 146.75, N
53075, 147.43055555555554, N
53322, 148.11666666666667, N
53566, 148.79444444444445, N
53807, 149.4638888888889, N
54042, 150.11666666666667, N
54282, 150.78333333333333, N
54530, 151.47222222222223, N
54770, 152.13888888888889, N
55004, 152.7888888888889, N
55237, 153.4361111111111, N
55476, 154.1, N
55715, 154.76388888888889, N
55957, 155.4361111111111, N
56196, 156.1, N
56437, 156.76944444444445, N
56674, 157.42777777777778, N
56919, 158.10833333333332, N
57163, 158.7861111111111, N
57406, 159.4611111111111, N
57645, 160.125, N
57887, 160.79722222222222, N
58125, 161.45833333333334, N
58369, 162.13611111111112, N
58611, 162.80833333333334, N
58848, 163.46666666666667, N
59085, 164.125, N
59323, 164.7861111111111, N
59563, 165.45277777777778, N
59802, 166.11666666666667, N
60037, 166.76944444444445, N
60271, 167.41944444444445, N
60507, 168.075, N
60743, 168.73055555555555, N
60985, 169.40277777777777, N
61227, 170.075, N
61462, 170.7277777777778, N
61700, 171.38888888888889, N
61937, 172.04722222222222, N
62187, 172.74166666666667, N
62427, 173.40833333333333, N
62667, 174.075, N
62900, 174.72222222222223, N
63136, 175.37777777777777, N
63371, 176.03055555555557, N
63613, 176.70277777777778, N
63855, 177.375, N
64088, 178.0222222222222, N
64322, 178.67222222222222, N
64562, 179.3388888888889, N
64809, 180.025, N
65049, 180.69166666666666, N
65288, 181.35555555555555, N
65527, 182.01944444444445, N
65766, 182.68333333333334, N
66006, 183.35, N
66247, 184.01944444444445, N
66492, 184.7, N
66727, 185.3527777777778, N
66963, 186.00833333333333, N
67198, 186.6611111111111, N
67443, 187.34166666666667, N
67679, 187.99722222222223, N
67913, 188.6472222222222, N
68144, 189.2888888888889, N
68379, 189.94166666666666, N
68610, 190.58333333333334, N
68849, 191.24722222222223, N
69091, 191.91944444444445, N
69327, 192.575, N
69560, 193.22222222222223, N
69795, 193.875, N
70041, 194.55833333333334, N
70281, 195.225, N
70519, 195.88611111111112, N
70756, 196.54444444444445, N
70991, 197.19722222222222, N
71224, 197.84444444444443, N
71463, 198.50833333333333, N
71708, 199.1888888888889, N
71942, 199.8388888888889, N
72174, 200.48333333333332, N
72407, 201.13055555555556, N
72648, 201.8, N
72884, 202.45555555555555, N
73122, 203.11666666666667, N
73356, 203.76666666666668, N
73593, 204.425, N
73829, 205.08055555555555, N
74068, 205.74444444444444, N
74311, 206.41944444444445, N
74546, 207.07222222222222, N
74783, 207.73055555555555, N
75022, 208.39444444444445, N
75270, 209.08333333333334, N
75508, 209.74444444444444, N
75745, 210.40277777777777, N
75982, 211.0611111111111, N
76223, 211.73055555555555, N
76465, 212.40277777777777, N
76709, 213.08055555555555, N
76956, 213.76666666666668, N
77198, 214.4388888888889, N
77435, 215.09722222222223, N
77678, 215.7722222222222, N
77930, 216.47222222222223, N
78172, 217.14444444444445, N
78412, 217.8111111111111, N
78652, 218.4777777777778, N
78895, 219.15277777777777, N
79136, 219.82222222222222, N
79379, 220.49722222222223, N
79624, 221.17777777777778, N
79867, 221.8527777777778, N
80104, 222.51111111111112, N
80348, 223.1888888888889, N
80596, 223.87777777777777, N
80840, 224.55555555555554, N
81077, 225.2138888888889, N
81320, 225.88888888888889, N
81565, 226.56944444444446, N
81812, 227.25555555555556, N
82061, 227.94722222222222, N
82301, 228.61388888888888, N
82542, 229.28333333333333, N
82783, 229.95277777777778, N
83037, 230.65833333333333, N
83281, 231.3361111111111, N
83525, 232.01388888888889, N
83763, 232.675, N
84000, 233.33333333333334, N
84237, 233.99166666666667, N
84478, 234.6611111111111, N
84726, 235.35, N
84965, 236.01388888888889, N
85202, 236.67222222222222, N
85445, 237.34722222222223, N
85693, 238.0361111111111, N
85934, 238.70555555555555, N
86173, 239.36944444444444, N
86413, 240.0361111111111, N
86657, 240.7138888888889, N
86895, 241.375, N
87138, 242.05, N
87381, 242.725, N
87626, 243.40555555555557, N
87860, 244.05555555555554, N
88101, 244.725, N
88345, 245.40277777777777, N
88585, 246.06944444444446, N
88817, 246.7138888888889, N
88985, 247.18055555555554, V
89292, 248.03333333333333, N
89532, 248.7, N
89771, 249.36388888888888, N
90010, 250.02777777777777, N
90246, 250.68333333333334, N
90477, 251.325, N
90717, 251.99166666666667, N
90960, 252.66666666666666, N
91196, 253.32222222222222, N
91425, 253.95833333333334, N
91657, 254.6027777777778, N
91898, 255.2722222222222, N
92139, 255.94166666666666, N
92379, 256.60833333333335, N
92616, 257.26666666666665, N
92851, 257.9194444444444, N
93087, 258.575, N
93331, 259.2527777777778, N
93575, 259.93055555555554, N
93810, 260.5833333333333, N
94041, 261.225, N
94274, 261.8722222222222, N
94510, 262.52777777777777, N
94746, 263.18333333333334, N
94984, 263.84444444444443, N
95215, 264.4861111111111, N
95451, 265.14166666666665, N
95682, 265.78333333333336, N
95926, 266.4611111111111, N
96166, 267.1277777777778, N
96404, 267.7888888888889, N
96636, 268.43333333333334, N
96869, 269.0805555555556, N
97104, 269.73333333333335, N
97340, 270.3888888888889, N
97578, 271.05, N
97812, 271.7, N
98043, 272.34166666666664, N
98269, 272.96944444444443, N
98502, 273.6166666666667, N
98741, 274.28055555555557, N
98971, 274.9194444444444, N
99198, 275.55, N
99425, 276.18055555555554, N
99659, 276.8305555555556, N
99884, 277.4555555555556, N
100118, 278.10555555555555, N
100349, 278.7472222222222, N
100578, 279.3833333333333, N
100802, 280.00555555555553, N
101031, 280.64166666666665, N
101266, 281.2944444444444, N
101493, 281.925, N
101718, 282.55, N
101941, 283.1694444444444, N
102163, 283.7861111111111, N
102383, 284.39722222222224, N
102607, 285.01944444444445, N
102830, 285.6388888888889, N
103050, 286.25, N
103269, 286.85833333333335, N
103486, 287.4611111111111, N
103710, 288.0833333333333, N
103938, 288.71666666666664, N
104156, 289.3222222222222, N
104373, 289.925, N
104596, 290.5444444444444, N
104823, 291.175, N
105044, 291.7888888888889, N
105272, 292.4222222222222, N
105504, 293.06666666666666, N
105729, 293.69166666666666, N
105956, 294.3222222222222, N
106181, 294.9472222222222, N
106415, 295.59722222222223, N
106645, 296.2361111111111, N
106875, 296.875, N
107010, 297.25, V
107323, 298.11944444444447, N
107505, 298.625, A
107561, 298.78055555555557, +
107630, 298.97222222222223, V
107745, 299.2916666666667, V
107852, 299.5888888888889, V
107977, 299.93611111111113, V
108104, 300.2888888888889, V
108224, 300.6222222222222, V
108337, 300.93611111111113, V
108464, 301.2888888888889, V
108650, 301.80555555555554, +
108678, 301.8833333333333, N
108911, 302.53055555555557, N
109089, 303.025, +
109152, 303.2, F
109259, 303.4972222222222, V
109382, 303.8388888888889, V
109490, 304.1388888888889, V
109599, 304.44166666666666, V
109706, 304.7388888888889, V
109801, 305.0027777777778, V
109906, 305.2944444444444, V
110018, 305.60555555555555, V
110124, 305.9, V
110272, 306.31111111111113, +
110298, 306.3833333333333, N
110518, 306.99444444444447, N
110751, 307.64166666666665, N
110973, 308.2583333333333, N
111198, 308.8833333333333, N
111424, 309.5111111111111, N
111660, 310.1666666666667, N
111889, 310.8027777777778, N
112120, 311.44444444444446, N
112347, 312.075, N
112580, 312.72222222222223, N
112809, 313.35833333333335, N
113046, 314.01666666666665, N
113284, 314.6777777777778, N
113517, 315.325, N
113748, 315.96666666666664, N
113869, 316.3027777777778, V
114214, 317.2611111111111, N
114451, 317.9194444444444, N
114682, 318.56111111111113, N
114908, 319.18888888888887, N
115138, 319.8277777777778, N
115368, 320.46666666666664, N
115601, 321.1138888888889, N
115834, 321.7611111111111, N
116065, 322.40277777777777, N
116294, 323.0388888888889, N
116518, 323.6611111111111, N
116751, 324.30833333333334, N
116990, 324.97222222222223, N
117222, 325.6166666666667, N
117450, 326.25, N
117682, 326.89444444444445, N
117920, 327.55555555555554, N
118153, 328.2027777777778, N
118390, 328.8611111111111, N
118625, 329.5138888888889, N
118859, 330.1638888888889, N
119087, 330.7972222222222, N
119325, 331.4583333333333, N
119563, 332.11944444444447, N
119795, 332.7638888888889, N
120022, 333.39444444444445, N
120253, 334.0361111111111, N
120488, 334.68888888888887, N
120721, 335.3361111111111, N
120957, 335.9916666666667, N
121195, 336.65277777777777, N
121429, 337.3027777777778, N
121660, 337.94444444444446, N
121902, 338.6166666666667, N
122149, 339.3027777777778, N
122385, 339.9583333333333, N
122617, 340.60277777777776, N
122853, 341.2583333333333, N
123092, 341.9222222222222, N
123329, 342.5805555555556, N
123567, 343.2416666666667, N
123804, 343.9, N
124041, 344.55833333333334, N
124273, 345.2027777777778, N
124510, 345.8611111111111, N
124753, 346.5361111111111, N
124990, 347.19444444444446, N
125225, 347.84722222222223, N
125462, 348.50555555555553, N
125701, 349.1694444444444, N
125942, 349.8388888888889, N
126187, 350.51944444444445, N
126433, 351.2027777777778, N
126675, 351.875, N
126912, 352.53333333333336, N
127157, 353.2138888888889, N
127405, 353.90277777777777, N
127648, 354.5777777777778, N
127889, 355.2472222222222, N
128129, 355.9138888888889, N
128369, 356.5805555555556, N
128615, 357.2638888888889, N
128865, 357.9583333333333, N
129106, 358.6277777777778, N
129347, 359.2972222222222, N
129594, 359.98333333333335, N
129847, 360.68611111111113, N
130091, 361.3638888888889, N
130332, 362.03333333333336, N
130572, 362.7, N
130747, 363.18611111111113, V
131057, 364.0472222222222, N
131299, 364.71944444444443, N
131540, 365.3888888888889, N
131775, 366.0416666666667, N
132006, 366.68333333333334, N
132241, 367.3361111111111, N
132482, 368.00555555555553, N
132715, 368.65277777777777, N
132949, 369.3027777777778, N
133182, 369.95, N
133419, 370.60833333333335, N
133653, 371.2583333333333, N
133896, 371.93333333333334, N
134141, 372.6138888888889, N
134376, 373.26666666666665, N
134610, 373.9166666666667, N
134851, 374.5861111111111, N
135100, 375.27777777777777, N
135338, 375.93888888888887, N
135572, 376.5888888888889, N
135805, 377.2361111111111, N
136043, 377.89722222222224, N
136276, 378.5444444444444, N
136514, 379.2055555555556, N
136752, 379.8666666666667, N
136983, 380.5083333333333, N
137213, 381.14722222222224, N
137448, 381.8, N
137690, 382.47222222222223, N
137922, 383.1166666666667, N
138155, 383.7638888888889, N
138387, 384.40833333333336, N
138622, 385.06111111111113, N
138851, 385.6972222222222, N
139090, 386.3611111111111, N
139329, 387.025, N
139564, 387.6777777777778, N
139794, 388.31666666666666, N
140028, 388.96666666666664, N
140270, 389.6388888888889, N
140503, 390.2861111111111, N
140737, 390.93611111111113, N
140971, 391.5861111111111, N
141204, 392.23333333333335, N
141435, 392.875, N
141673, 393.5361111111111, N
141916, 394.2111111111111, N
142147, 394.85277777777776, N
142381, 395.5027777777778, N
142614, 396.15, N
142858, 396.8277777777778, N
143091, 397.475, N
143329, 398.1361111111111, N
143562, 398.78333333333336, N
143797, 399.43611111111113, N
144029, 400.0805555555556, N
144270, 400.75, N
144513, 401.425, N
144744, 402.06666666666666, N
144978, 402.71666666666664, N
145213, 403.36944444444447, N
145456, 404.0444444444444, N
145692, 404.7, N
145925, 405.34722222222223, N
146156, 405.9888888888889, N
146389, 406.6361111111111, N
146622, 407.28333333333336, N
146861, 407.9472222222222, N
147100, 408.6111111111111, N
147331, 409.2527777777778, N
147564, 409.9, N
147798, 410.55, N
148041, 411.225, N
148275, 411.875, N
148508, 412.52222222222224, N
148739, 413.1638888888889, N
148971, 413.80833333333334, N
149204, 414.4555555555556, N
149439, 415.10833333333335, N
149677, 415.76944444444445, N
149907, 416.40833333333336, N
150139, 417.0527777777778, N
150369, 417.69166666666666, N
150607, 418.35277777777776, N
150840, 419.0, N
151075, 419.65277777777777, N
151302, 420.28333333333336, N
151535, 420.93055555555554, N
151765, 421.56944444444446, N
152001, 422.225, N
152236, 422.8777777777778, N
152469, 423.525, N
152702, 424.1722222222222, N
152931, 424.80833333333334, N
153165, 425.4583333333333, N
153403, 426.11944444444447, N
153636, 426.76666666666665, N
153864, 427.4, N
154094, 428.0388888888889, N
154325, 428.68055555555554, N
154556, 429.3222222222222, N
154790, 429.97222222222223, N
155022, 430.6166666666667, N
155254, 431.2611111111111, N
155481, 431.89166666666665, N
155716, 432.5444444444444, N
155954, 433.2055555555556, N
156186, 433.85, N
156415, 434.4861111111111, N
156647, 435.13055555555553, N
156884, 435.7888888888889, N
157118, 436.43888888888887, N
157354, 437.09444444444443, N
157588, 437.74444444444447, N
157821, 438.39166666666665, N
158048, 439.02222222222224, N
158285, 439.68055555555554, N
158522, 440.3388888888889, N
158754, 440.98333333333335, N
158979, 441.60833333333335, N
159209, 442.2472222222222, N
159441, 442.89166666666665, N
159671, 443.53055555555557, N
159903, 444.175, N
160138, 444.8277777777778, N
160364, 445.4555555555556, N
160591, 446.0861111111111, N
160823, 446.73055555555555, N
161063, 447.39722222222224, N
161291, 448.03055555555557, N
161522, 448.6722222222222, N
161752, 449.31111111111113, N
161983, 449.9527777777778, N
162212, 450.5888888888889, N
162447, 451.2416666666667, N
162686, 451.90555555555557, N
162911, 452.53055555555557, N
163140, 453.1666666666667, N
163369, 453.8027777777778, N
163606, 454.4611111111111, N
163836, 455.1, N
164069, 455.7472222222222, N
164295, 456.375, N
164523, 457.0083333333333, N
164750, 457.6388888888889, N
164984, 458.2888888888889, N
165220, 458.94444444444446, N
165451, 459.5861111111111, N
165682, 460.22777777777776, N
165913, 460.86944444444447, N
166150, 461.52777777777777, N
166385, 462.18055555555554, N
166620, 462.8333333333333, N
166849, 463.46944444444443, N
167080, 464.1111111111111, N
167311, 464.7527777777778, N
167545, 465.40277777777777, N
167781, 466.05833333333334, N
168011, 466.6972222222222, N
168243, 467.34166666666664, N
168469, 467.96944444444443, N
168704, 468.6222222222222, N
168940, 469.27777777777777, N
169173, 469.925, N
169402, 470.56111111111113, N
169633, 471.2027777777778, N
169868, 471.85555555555555, N
170101, 472.5027777777778, N
170338, 473.1611111111111, N
170571, 473.80833333333334, N
170803, 474.4527777777778, N
171031, 475.0861111111111, N
171266, 475.7388888888889, N
171504, 476.4, N
171737, 477.0472222222222, N
171962, 477.6722222222222, N
172191, 478.30833333333334, N
172422, 478.95, N
172652, 479.5888888888889, N
172886, 480.2388888888889, N
173121, 480.89166666666665, N
173349, 481.525, N
173579, 482.1638888888889, N
173814, 482.81666666666666, N
174057, 483.4916666666667, N
174289, 484.1361111111111, N
174523, 484.7861111111111, N
174754, 485.4277777777778, N
174987, 486.075, N
175220, 486.72222222222223, N
175455, 487.375, N
175693, 488.0361111111111, N
175921, 488.6694444444444, N
176151, 489.30833333333334, N
176383, 489.9527777777778, N
176620, 490.6111111111111, N
176851, 491.2527777777778, N
177085, 491.90277777777777, N
177315, 492.5416666666667, N
177547, 493.18611111111113, N
177776, 493.8222222222222, N
178013, 494.48055555555555, N
178252, 495.14444444444445, N
178485, 495.7916666666667, N
178718, 496.43888888888887, N
178948, 497.0777777777778, N
179185, 497.7361111111111, N
179420, 498.3888888888889, N
179653, 499.0361111111111, N
179881, 499.6694444444444, N
180106, 500.2944444444444, N
180334, 500.9277777777778, N
180565, 501.56944444444446, N
180798, 502.21666666666664, N
181026, 502.85, N
181258, 503.49444444444447, N
181482, 504.1166666666667, N
181716, 504.76666666666665, N
181953, 505.425, N
182183, 506.06388888888887, N
182409, 506.69166666666666, N
182638, 507.3277777777778, N
182871, 507.975, N
183102, 508.6166666666667, N
183334, 509.2611111111111, N
183567, 509.90833333333336, N
183797, 510.5472222222222, N
184022, 511.1722222222222, N
184256, 511.8222222222222, N
184494, 512.4833333333333, N
184721, 513.1138888888889, N
184948, 513.7444444444444, N
185180, 514.3888888888889, N
185412, 515.0333333333333, N
185645, 515.6805555555555, N
185880, 516.3333333333334, N
186120, 517.0, N
186350, 517.6388888888889, N
186581, 518.2805555555556, N
186814, 518.9277777777778, N
187054, 519.5944444444444, N
187286, 520.2388888888889, N
187520, 520.8888888888889, N
187747, 521.5194444444444, N
187976, 522.1555555555556, N
188203, 522.7861111111112, N
188437, 523.4361111111111, N
188668, 524.0777777777778, N
188891, 524.6972222222222, N
189116, 525.3222222222222, N
189337, 525.9361111111111, N
189567, 526.575, N
189796, 527.2111111111111, N
190025, 527.8472222222222, N
190243, 528.4527777777778, N
190465, 529.0694444444445, N
190691, 529.6972222222222, N
190917, 530.325, N
191145, 530.9583333333334, N
191374, 531.5944444444444, N
191596, 532.2111111111111, N
191816, 532.8222222222222, N
192042, 533.45, N
192274, 534.0944444444444, N
192497, 534.7138888888888, N
192722, 535.3388888888888, N
192946, 535.9611111111111, N
193169, 536.5805555555555, N
193395, 537.2083333333334, N
193626, 537.85, N
193861, 538.5027777777777, N
194087, 539.1305555555556, N
194317, 539.7694444444444, N
194548, 540.4111111111112, N
194787, 541.075, N
195020, 541.7222222222222, N
195254, 542.3722222222223, N
195484, 543.0111111111111, N
195716, 543.6555555555556, N
195946, 544.2944444444445, N
196182, 544.95, N
196416, 545.6, N
196645, 546.2361111111111, N
196876, 546.8777777777777, N
197106, 547.5166666666667, N
197343, 548.175, N
197578, 548.8277777777778, N
197812, 549.4777777777778, N
198041, 550.1138888888889, N
198272, 550.7555555555556, N
198508, 551.4111111111112, N
198748, 552.0777777777778, N
198988, 552.7444444444444, N
199221, 553.3916666666667, N
199458, 554.05, N
199694, 554.7055555555555, N
199935, 555.375, N
200174, 556.0388888888889, N
200415, 556.7083333333334, N
200647, 557.3527777777778, N
200880, 558.0, N
201047, 558.4638888888888, V
201350, 559.3055555555555, N
201591, 559.975, N
201820, 560.6111111111111, N
202053, 561.2583333333333, N
202282, 561.8944444444444, N
202518, 562.55, N
202753, 563.2027777777778, N
202992, 563.8666666666667, N
203222, 564.5055555555556, N
203454, 565.15, N
203687, 565.7972222222222, N
203928, 566.4666666666667, N
204169, 567.1361111111111, N
204406, 567.7944444444445, N
204640, 568.4444444444445, N
204873, 569.0916666666667, N
205112, 569.7555555555556, N
205352, 570.4222222222222, N
205588, 571.0777777777778, N
205820, 571.7222222222222, N
206050, 572.3611111111111, N
206284, 573.0111111111111, N
206519, 573.6638888888889, N
206756, 574.3222222222222, N
206987, 574.9638888888888, N
207219, 575.6083333333333, N
207450, 576.25, N
207687, 576.9083333333333, N
207925, 577.5694444444445, N
208163, 578.2305555555556, N
208392, 578.8666666666667, N
208624, 579.5111111111111, N
208861, 580.1694444444445, N
209099, 580.8305555555555, N
209340, 581.5, N
209574, 582.15, N
209810, 582.8055555555555, N
210044, 583.4555555555555, N
210286, 584.1277777777777, N
210529, 584.8027777777778, N
210766, 585.4611111111111, N
210995, 586.0972222222222, N
211227, 586.7416666666667, N
211463, 587.3972222222222, N
211703, 588.0638888888889, N
211942, 588.7277777777778, N
212174, 589.3722222222223, N
212410, 590.0277777777778, N
212643, 590.675, N
212884, 591.3444444444444, N
213126, 592.0166666666667, N
213364, 592.6777777777778, N
213593, 593.3138888888889, N
213826, 593.9611111111111, N
214064, 594.6222222222223, N
214302, 595.2833333333333, N
214541, 595.9472222222222, N
214772, 596.5888888888888, N
215008, 597.2444444444444, N
215237, 597.8805555555556, N
215475, 598.5416666666666, N
215714, 599.2055555555555, N
215950, 599.8611111111111, N
216177, 600.4916666666667, N
216409, 601.1361111111111, N
216643, 601.7861111111112, N
216878, 602.4388888888889, N
217114, 603.0944444444444, N
217350, 603.75, N
217585, 604.4027777777778, N
217816, 605.0444444444445, N
218050, 605.6944444444445, N
218293, 606.3694444444444, N
218525, 607.0138888888889, N
218756, 607.6555555555556, N
218986, 608.2944444444445, N
219222, 608.95, N
219453, 609.5916666666667, N
219689, 610.2472222222223, N
219925, 610.9027777777778, N
220163, 611.5638888888889, N
220394, 612.2055555555555, N
220630, 612.8611111111111, N
220870, 613.5277777777778, N
221104, 614.1777777777778, N
221338, 614.8277777777778, N
221575, 615.4861111111111, N
221817, 616.1583333333333, N
222051, 616.8083333333333, N
222289, 617.4694444444444, N
222528, 618.1333333333333, N
222766, 618.7944444444445, N
222999, 619.4416666666667, N
223236, 620.1, N
223478, 620.7722222222222, N
223712, 621.4222222222222, N
223942, 622.0611111111111, N
224174, 622.7055555555555, N
224411, 623.3638888888889, N
224642, 624.0055555555556, N
224877, 624.6583333333333, N
225113, 625.3138888888889, N
225346, 625.9611111111111, N
225577, 626.6027777777778, N
225810, 627.25, N
226054, 627.9277777777778, N
226287, 628.575, N
226518, 629.2166666666667, N
226744, 629.8444444444444, N
226978, 630.4944444444444, N
227205, 631.125, N
227440, 631.7777777777778, N
227672, 632.4222222222222, N
227900, 633.0555555555555, N
228125, 633.6805555555555, N
228356, 634.3222222222222, N
228592, 634.9777777777778, N
228824, 635.6222222222223, N
229052, 636.2555555555556, N
229279, 636.8861111111111, N
229508, 637.5222222222222, N
229736, 638.1555555555556, N
229972, 638.8111111111111, N
230208, 639.4666666666667, N
230437, 640.1027777777778, N
230610, 640.5833333333334, V
230896, 641.3777777777777, N
231135, 642.0416666666666, N
231365, 642.6805555555555, N
231598, 643.3277777777778, N
231828, 643.9666666666667, N
232056, 644.6, N
232284, 645.2333333333333, N
232517, 645.8805555555556, N
232757, 646.5472222222222, N
232986, 647.1833333333333, N
233219, 647.8305555555555, N
233450, 648.4722222222222, N
233691, 649.1416666666667, N
233927, 649.7972222222222, N
234164, 650.4555555555555, N
234397, 651.1027777777778, N
234632, 651.7555555555556, N
234866, 652.4055555555556, N
235000, 652.7777777777778, V
235345, 653.7361111111111, N
235582, 654.3944444444444, N
235816, 655.0444444444445, N
236051, 655.6972222222222, N
236288, 656.3555555555556, N
236522, 657.0055555555556, N
236755, 657.6527777777778, N
236989, 658.3027777777778, N
237223, 658.9527777777778, N
237459, 659.6083333333333, N
237699, 660.275, N
237942, 660.95, N
238181, 661.6138888888889, N
238423, 662.2861111111112, N
238666, 662.9611111111111, N
238917, 663.6583333333333, N
239158, 664.3277777777778, N
239401, 665.0027777777777, N
239640, 665.6666666666666, N
239884, 666.3444444444444, N
240120, 667.0, N
240363, 667.675, N
240605, 668.3472222222222, N
240841, 669.0027777777777, N
241076, 669.6555555555556, N
241313, 670.3138888888889, N
241557, 670.9916666666667, N
241795, 671.6527777777778, N
242032, 672.3111111111111, N
242270, 672.9722222222222, N
242512, 673.6444444444444, N
242750, 674.3055555555555, N
242992, 674.9777777777778, N
243235, 675.6527777777778, N
243474, 676.3166666666667, N
243709, 676.9694444444444, N
243948, 677.6333333333333, N
244195, 678.3194444444445, N
244432, 678.9777777777778, N
244668, 679.6333333333333, N
244903, 680.2861111111112, N
245144, 680.9555555555555, N
245378, 681.6055555555556, N
245619, 682.275, N
245857, 682.9361111111111, N
246096, 683.6, N
246330, 684.25, N
246572, 684.9222222222222, N
246817, 685.6027777777778, N
247056, 686.2666666666667, N
247291, 686.9194444444445, N
247530, 687.5833333333334, N
247770, 688.25, N
248011, 688.9194444444445, N
248252, 689.5888888888888, N
248492, 690.2555555555556, N
248732, 690.9222222222222, N
248967, 691.575, N
249208, 692.2444444444444, N
249452, 692.9222222222222, N
249691, 693.5861111111111, N
249927, 694.2416666666667, N
250163, 694.8972222222222, N
250403, 695.5638888888889, N
250646, 696.2388888888889, N
250890, 696.9166666666666, N
251128, 697.5777777777778, N
251367, 698.2416666666667, N
251604, 698.9, N
251846, 699.5722222222222, N
252090, 700.25, N
252332, 700.9222222222222, N
252566, 701.5722222222222, N
252801, 702.225, N
253038, 702.8833333333333, N
253282, 703.5611111111111, N
253528, 704.2444444444444, N
253767, 704.9083333333333, N
254006, 705.5722222222222, N
254243, 706.2305555555556, N
254488, 706.9111111111112, N
254733, 707.5916666666667, N
254974, 708.2611111111111, N
255208, 708.9111111111112, N
255445, 709.5694444444445, N
255682, 710.2277777777778, N
255925, 710.9027777777778, N
256170, 711.5833333333334, N
256408, 712.2444444444444, N
256644, 712.9, N
256881, 713.5583333333333, N
257127, 714.2416666666667, N
257366, 714.9055555555556, N
257606, 715.5722222222222, N
257840, 716.2222222222222, N
258077, 716.8805555555556, N
258312, 717.5333333333333, N
258553, 718.2027777777778, N
258798, 718.8833333333333, N
259033, 719.5361111111112, N
259267, 720.1861111111111, N
259507, 720.8527777777778, N
259756, 721.5444444444445, N
259997, 722.2138888888888, N
260238, 722.8833333333333, N
260478, 723.55, N
260722, 724.2277777777778, N
260961, 724.8916666666667, N
261203, 725.5638888888889, N
261448, 726.2444444444444, N
261686, 726.9055555555556, N
261920, 727.5555555555555, N
262161, 728.225, N
262410, 728.9166666666666, N
262651, 729.5861111111111, N
262887, 730.2416666666667, N
263123, 730.8972222222222, N
263365, 731.5694444444445, N
263611, 732.2527777777777, N
263855, 732.9305555555555, N
264094, 733.5944444444444, N
264332, 734.2555555555556, N
264569, 734.9138888888889, N
264815, 735.5972222222222, N
265059, 736.275, N
265299, 736.9416666666667, N
265532, 737.5888888888888, N
265766, 738.2388888888889, N
266002, 738.8944444444444, N
266243, 739.5638888888889, N
266484, 740.2333333333333, N
266720, 740.8888888888889, N
266955, 741.5416666666666, N
267192, 742.2, N
267437, 742.8805555555556, N
267679, 743.5527777777778, N
267921, 744.225, N
268159, 744.8861111111111, N
268397, 745.5472222222222, N
268633, 746.2027777777778, N
268877, 746.8805555555556, N
269123, 747.5638888888889, N
269360, 748.2222222222222, N
269595, 748.875, N
269830, 749.5277777777778, N
270077, 750.2138888888888, N
270314, 750.8722222222223, N
270552, 751.5333333333333, N
270786, 752.1833333333333, N
271022, 752.8388888888888, N
271256, 753.4888888888889, N
271496, 754.1555555555556, N
271737, 754.825, N
271973, 755.4805555555556, N
272205, 756.125, N
272443, 756.7861111111112, N
272688, 757.4666666666667, N
272923, 758.1194444444444, N
273156, 758.7666666666667, N
273390, 759.4166666666666, N
273630, 760.0833333333334, N
273866, 760.7388888888889, N
274106, 761.4055555555556, N
274343, 762.0638888888889, N
274581, 762.725, N
274811, 763.3638888888889, N
275050, 764.0277777777778, N
275291, 764.6972222222222, N
275524, 765.3444444444444, N
275750, 765.9722222222222, N
275983, 766.6194444444444, N
276219, 767.275, N
276453, 767.925, N
276689, 768.5805555555555, N
276926, 769.2388888888889, N
277156, 769.8777777777777, N
277385, 770.5138888888889, N
277618, 771.1611111111112, N
277859, 771.8305555555555, N
278090, 772.4722222222222, N
278321, 773.1138888888889, N
278549, 773.7472222222223, N
278784, 774.4, N
279012, 775.0333333333333, N
279246, 775.6833333333333, N
279480, 776.3333333333334, N
279709, 776.9694444444444, N
279936, 777.6, N
280163, 778.2305555555556, N
280399, 778.8861111111111, N
280631, 779.5305555555556, N
280864, 780.1777777777778, N
281087, 780.7972222222222, N
281315, 781.4305555555555, N
281542, 782.0611111111111, N
281776, 782.7111111111111, N
282008, 783.3555555555556, N
282238, 783.9944444444444, N
282468, 784.6333333333333, N
282696, 785.2666666666667, N
282930, 785.9166666666666, N
283166, 786.5722222222222, N
283398, 787.2166666666667, N
283623, 787.8416666666667, N
283848, 788.4666666666667, N
284079, 789.1083333333333, N
284310, 789.75, N
284542, 790.3944444444444, N
284771, 791.0305555555556, N
285000, 791.6666666666666, N
285226, 792.2944444444445, N
285459, 792.9416666666667, N
285696, 793.6, N
285926, 794.2388888888889, N
286153, 794.8694444444444, N
286384, 795.5111111111111, N
286618, 796.1611111111112, N
286849, 796.8027777777778, N
287080, 797.4444444444445, N
287315, 798.0972222222222, N
287542, 798.7277777777778, N
287770, 799.3611111111111, N
287998, 799.9944444444444, N
288232, 800.6444444444444, N
288457, 801.2694444444444, N
288683, 801.8972222222222, N
288911, 802.5305555555556, N
289135, 803.1527777777778, N
289359, 803.775, N
289586, 804.4055555555556, N
289818, 805.05, N
290046, 805.6833333333333, N
290274, 806.3166666666667, N
290500, 806.9444444444445, N
290730, 807.5833333333334, N
290967, 808.2416666666667, N
291198, 808.8833333333333, N
291422, 809.5055555555556, N
291651, 810.1416666666667, N
291884, 810.7888888888889, N
292115, 811.4305555555555, N
292345, 812.0694444444445, N
292576, 812.7111111111111, N
292808, 813.3555555555556, N
293033, 813.9805555555556, N
293264, 814.6222222222223, N
293499, 815.275, N
293730, 815.9166666666666, N
293957, 816.5472222222222, N
294192, 817.2, N
294429, 817.8583333333333, N
294662, 818.5055555555556, F
294901, 819.1694444444445, N
295141, 819.8361111111111, N
295376, 820.4888888888889, N
295609, 821.1361111111111, N
295844, 821.7888888888889, N
296046, 822.35, V
296320, 823.1111111111111, N
296562, 823.7833333333333, N
296790, 824.4166666666666, N
297024, 825.0666666666667, N
297261, 825.725, N
297497, 826.3805555555556, N
297734, 827.0388888888889, N
297965, 827.6805555555555, N
298203, 828.3416666666667, N
298440, 829.0, N
298684, 829.6777777777778, N
298920, 830.3333333333334, N
299160, 831.0, N
299398, 831.6611111111112, N
299642, 832.3388888888888, N
299880, 833.0, N
300117, 833.6583333333333, N
300362, 834.3388888888888, N
300601, 835.0027777777777, N
300834, 835.65, N
301070, 836.3055555555555, N
301317, 836.9916666666667, N
301557, 837.6583333333333, N
301785, 838.2916666666666, F
302016, 838.9333333333333, N
302253, 839.5916666666667, N
302497, 840.2694444444444, N
302736, 840.9333333333333, N
302972, 841.5888888888888, N
303205, 842.2361111111111, N
303444, 842.9, N
303691, 843.5861111111111, N
303936, 844.2666666666667, N
304176, 844.9333333333333, N
304402, 845.5611111111111, N
304643, 846.2305555555556, N
304882, 846.8944444444444, N
305126, 847.5722222222222, N
305365, 848.2361111111111, N
305595, 848.875, N
305837, 849.5472222222222, N
306072, 850.2, N
306314, 850.8722222222223, N
306552, 851.5333333333333, N
306797, 852.2138888888888, N
307030, 852.8611111111111, N
307266, 853.5166666666667, N
307501, 854.1694444444445, N
307748, 854.8555555555556, N
307994, 855.5388888888889, N
308232, 856.2, N
308468, 856.8555555555556, N
308710, 857.5277777777778, N
308958, 858.2166666666667, N
309194, 858.8722222222223, N
309434, 859.5388888888889, N
309672, 860.2, N
309912, 860.8666666666667, N
310147, 861.5194444444444, N
310386, 862.1833333333333, N
310633, 862.8694444444444, N
310872, 863.5333333333333, N
311107, 864.1861111111111, N
311347, 864.8527777777778, N
311598, 865.55, N
311839, 866.2194444444444, N
312074, 866.8722222222223, N
312309, 867.525, N
312557, 868.2138888888888, N
312802, 868.8944444444444, N
313043, 869.5638888888889, N
313282, 870.2277777777778, N
313519, 870.8861111111111, N
313760, 871.5555555555555, N
314001, 872.225, N
314245, 872.9027777777778, N
314483, 873.5638888888889, N
314721, 874.225, N
314959, 874.8861111111111, N
315201, 875.5583333333333, N
315446, 876.2388888888889, N
315686, 876.9055555555556, N
315928, 877.5777777777778, N
316170, 878.25, N
316409, 878.9138888888889, N
316655, 879.5972222222222, N
316901, 880.2805555555556, N
317152, 880.9777777777778, N
317391, 881.6416666666667, N
317632, 882.3111111111111, N
317873, 882.9805555555556, N
318126, 883.6833333333333, N
318378, 884.3833333333333, N
318623, 885.0638888888889, N
318862, 885.7277777777778, N
319112, 886.4222222222222, N
319367, 887.1305555555556, N
319616, 887.8222222222222, N
319855, 888.4861111111111, N
320096, 889.1555555555556, N
320346, 889.85, N
320593, 890.5361111111112, N
320842, 891.2277777777778, N
321089, 891.9138888888889, N
321336, 892.6, N
321580, 893.2777777777778, N
321832, 893.9777777777778, N
322083, 894.675, N
322330, 895.3611111111111, N
322577, 896.0472222222222, N
322822, 896.7277777777778, N
322918, 896.9944444444444, ~
323065, 897.4027777777778, N
323310, 898.0833333333334, N
323565, 898.7916666666666, N
323806, 899.4611111111111, N
324049, 900.1361111111111, N
324286, 900.7944444444445, N
324541, 901.5027777777777, N
324788, 902.1888888888889, N
325037, 902.8805555555556, N
325277, 903.5472222222222, N
325523, 904.2305555555556, N
325766, 904.9055555555556, N
326011, 905.5861111111111, N
326257, 906.2694444444444, N
326497, 906.9361111111111, N
326741, 907.6138888888889, N
326989, 908.3027777777778, N
327242, 909.0055555555556, N
327487, 909.6861111111111, N
327723, 910.3416666666667, N
327960, 911.0, N
328200, 911.6666666666666, N
328446, 912.35, N
328688, 913.0222222222222, N
328930, 913.6944444444445, N
329176, 914.3777777777777, N
329410, 915.0277777777778, F
329656, 915.7111111111111, N
329901, 916.3916666666667, N
330141, 917.0583333333333, N
330376, 917.7111111111111, N
330613, 918.3694444444444, N
330854, 919.0388888888889, N
330957, 919.325, |
331096, 919.7111111111111, N
331137, 919.825, ~
331335, 920.375, N
331566, 921.0166666666667, N
331807, 921.6861111111111, N
332036, 922.3222222222222, N
332277, 922.9916666666667, N
332513, 923.6472222222222, N
332753, 924.3138888888889, N
332983, 924.9527777777778, N
333214, 925.5944444444444, N
333365, 926.0138888888889, V
333687, 926.9083333333333, N
333754, 927.0944444444444, +
333869, 927.4138888888889, V
333989, 927.7472222222223, V
334162, 928.2277777777778, V
334324, 928.6777777777778, +
334395, 928.875, N
334630, 929.5277777777778, N
334871, 930.1972222222222, N
335108, 930.8555555555556, N
335355, 931.5416666666666, N
335587, 932.1861111111111, N
335822, 932.8388888888888, N
336058, 933.4944444444444, N
336300, 934.1666666666666, N
336544, 934.8444444444444, N
336780, 935.5, N
337021, 936.1694444444445, N
337258, 936.8277777777778, N
337506, 937.5166666666667, N
337745, 938.1805555555555, N
337989, 938.8583333333333, N
338230, 939.5277777777778, N
338480, 940.2222222222222, N
338719, 940.8861111111111, F
338963, 941.5638888888889, N
339207, 942.2416666666667, N
339451, 942.9194444444445, N
339690, 943.5833333333334, N
339938, 944.2722222222222, N
340186, 944.9611111111111, F
340425, 945.625, N
340653, 946.2583333333333, N
340895, 946.9305555555555, N
341140, 947.6111111111111, N
341381, 948.2805555555556, F
341621, 948.9472222222222, N
341856, 949.6, N
342100, 950.2777777777778, N
342335, 950.9305555555555, N
342581, 951.6138888888889, N
342830, 952.3055555555555, N
343077, 952.9916666666667, N
343313, 953.6472222222222, N
343550, 954.3055555555555, N
343784, 954.9555555555555, N
344031, 955.6416666666667, N
344277, 956.325, N
344513, 956.9805555555556, N
344747, 957.6305555555556, N
344978, 958.2722222222222, N
345226, 958.9611111111111, N
345464, 959.6222222222223, N
345702, 960.2833333333333, N
345934, 960.9277777777778, N
346167, 961.575, N
346408, 962.2444444444444, N
346654, 962.9277777777778, N
346899, 963.6083333333333, F
347136, 964.2666666666667, N
347375, 964.9305555555555, N
347613, 965.5916666666667, N
347855, 966.2638888888889, N
348099, 966.9416666666667, N
348342, 967.6166666666667, N
348540, 968.1666666666666, V
348816, 968.9333333333333, N
349050, 969.5833333333334, N
349295, 970.2638888888889, N
349538, 970.9388888888889, N
349772, 971.5888888888888, N
350004, 972.2333333333333, N
350241, 972.8916666666667, N
350490, 973.5833333333334, N
350732, 974.2555555555556, N
350967, 974.9083333333333, F
351205, 975.5694444444445, N
351447, 976.2416666666667, N
351685, 976.9027777777778, N
351927, 977.575, N
352170, 978.25, N
352406, 978.9055555555556, F
352638, 979.55, N
352875, 980.2083333333334, N
353120, 980.8888888888889, N
353358, 981.55, N
353591, 982.1972222222222, N
353821, 982.8361111111111, F
354060, 983.5, N
354293, 984.1472222222222, N
354533, 984.8138888888889, N
354772, 985.4777777777778, N
355006, 986.1277777777777, N
355238, 986.7722222222222, N
355476, 987.4333333333333, N
355727, 988.1305555555556, N
355963, 988.7861111111112, N
356198, 989.4388888888889, N
356431, 990.0861111111111, N
356677, 990.7694444444444, N
356911, 991.4194444444445, N
357150, 992.0833333333334, N
357383, 992.7305555555556, N
357621, 993.3916666666667, N
357847, 994.0194444444444, N
358090, 994.6944444444445, N
358331, 995.3638888888889, N
358567, 996.0194444444444, N
358795, 996.6527777777778, N
359028, 997.3, N
359270, 997.9722222222222, N
359504, 998.6222222222223, N
359741, 999.2805555555556, N
359980, 999.9444444444445, N
360218, 1000.6055555555556, N
360447, 1001.2416666666667, N
360681, 1001.8916666666667, N
360923, 1002.5638888888889, N
361154, 1003.2055555555555, N
361392, 1003.8666666666667, N
361626, 1004.5166666666667, N
361861, 1005.1694444444445, N
362093, 1005.8138888888889, N
362332, 1006.4777777777778, N
362578, 1007.1611111111112, N
362817, 1007.825, N
363048, 1008.4666666666667, N
363288, 1009.1333333333333, N
363541, 1009.8361111111111, N
363784, 1010.5111111111111, N
364020, 1011.1666666666666, N
364258, 1011.8277777777778, N
364502, 1012.5055555555556, N
364750, 1013.1944444444445, N
364995, 1013.875, N
365237, 1014.5472222222222, N
365479, 1015.2194444444444, N
365723, 1015.8972222222222, N
365973, 1016.5916666666667, N
366221, 1017.2805555555556, N
366462, 1017.95, N
366705, 1018.625, N
366951, 1019.3083333333333, N
367198, 1019.9944444444444, N
367444, 1020.6777777777778, N
367695, 1021.375, N
367943, 1022.0638888888889, N
368188, 1022.7444444444444, N
368434, 1023.4277777777778, N
368692, 1024.1444444444444, N
368937, 1024.825, N
369183, 1025.5083333333334, N
369428, 1026.1888888888889, N
369677, 1026.8805555555555, N
369919, 1027.5527777777777, N
370170, 1028.25, N
370417, 1028.9361111111111, N
370664, 1029.6222222222223, N
370903, 1030.286111111111, N
371152, 1030.9777777777779, N
371408, 1031.6888888888889, N
371659, 1032.3861111111112, N
371901, 1033.0583333333334, N
372150, 1033.75, N
372399, 1034.4416666666666, N
372653, 1035.1472222222221, N
372910, 1035.861111111111, N
373156, 1036.5444444444445, N
373400, 1037.2222222222222, N
373655, 1037.9305555555557, N
373915, 1038.6527777777778, N
374161, 1039.3361111111112, N
374404, 1040.0111111111112, N
374651, 1040.6972222222223, N
374900, 1041.388888888889, N
375147, 1042.075, N
375395, 1042.763888888889, N
375641, 1043.4472222222223, N
375885, 1044.125, N
376126, 1044.7944444444445, N
376377, 1045.4916666666666, N
376625, 1046.1805555555557, N
376873, 1046.8694444444445, N
377114, 1047.5388888888888, N
377359, 1048.2194444444444, N
377604, 1048.9, N
377851, 1049.5861111111112, N
378099, 1050.275, N
378342, 1050.95, N
378579, 1051.6083333333333, N
378828, 1052.3, N
379080, 1053.0, N
379323, 1053.675, N
379560, 1054.3333333333333, N
379805, 1055.013888888889, N
380052, 1055.7, N
380300, 1056.388888888889, N
380552, 1057.088888888889, N
380795, 1057.763888888889, N
381044, 1058.4555555555555, N
381291, 1059.1416666666667, N
381547, 1059.8527777777779, N
381797, 1060.5472222222222, N
382047, 1061.2416666666666, N
382293, 1061.925, N
382544, 1062.6222222222223, N
382791, 1063.3083333333334, N
383045, 1064.013888888889, N
383299, 1064.7194444444444, N
383551, 1065.4194444444445, N
383793, 1066.0916666666667, N
384050, 1066.8055555555557, N
384305, 1067.513888888889, N
384559, 1068.2194444444444, N
384805, 1068.9027777777778, N
385052, 1069.588888888889, N
385301, 1070.2805555555556, N
385554, 1070.9833333333333, N
385812, 1071.7, N
386062, 1072.3944444444444, N
386305, 1073.0694444444443, N
386555, 1073.763888888889, N
386813, 1074.4805555555556, N
387064, 1075.1777777777777, N
387312, 1075.8666666666666, N
387558, 1076.55, N
387810, 1077.25, N
388061, 1077.9472222222223, N
388318, 1078.661111111111, N
388570, 1079.361111111111, N
388820, 1080.0555555555557, N
389068, 1080.7444444444445, N
389329, 1081.4694444444444, N
389584, 1082.1777777777777, N
389839, 1082.8861111111112, N
390087, 1083.575, N
390342, 1084.2833333333333, N
390595, 1084.986111111111, N
390852, 1085.7, N
391108, 1086.411111111111, N
391360, 1087.111111111111, N
391606, 1087.7944444444445, N
391866, 1088.5166666666667, N
392124, 1089.2333333333333, N
392375, 1089.9305555555557, N
392622, 1090.6166666666666, N
392871, 1091.3083333333334, N
393124, 1092.0111111111112, N
393377, 1092.713888888889, N
393633, 1093.425, N
393881, 1094.1138888888888, N
394127, 1094.7972222222222, N
394382, 1095.5055555555555, N
394642, 1096.2277777777779, N
394892, 1096.9222222222222, N
395134, 1097.5944444444444, N
395384, 1098.2888888888888, N
395636, 1098.9888888888888, N
395889, 1099.6916666666666, N
396141, 1100.3916666666667, N
396389, 1101.0805555555555, N
396638, 1101.7722222222221, N
396885, 1102.4583333333333, N
397142, 1103.1722222222222, N
397393, 1103.8694444444445, N
397642, 1104.5611111111111, N
397890, 1105.25, N
398142, 1105.95, N
398388, 1106.6333333333334, N
398641, 1107.3361111111112, N
398899, 1108.0527777777777, N
399151, 1108.7527777777777, N
399397, 1109.4361111111111, N
399651, 1110.1416666666667, N
399909, 1110.8583333333333, N
400163, 1111.5638888888889, N
400411, 1112.2527777777777, N
400659, 1112.9416666666666, N
400908, 1113.6333333333334, N
401161, 1114.3361111111112, N
401419, 1115.0527777777777, N
401671, 1115.7527777777777, N
401916, 1116.4333333333334, N
402171, 1117.1416666666667, N
402431, 1117.8638888888888, N
402683, 1118.5638888888889, N
402930, 1119.25, N
403183, 1119.9527777777778, N
403437, 1120.6583333333333, N
403694, 1121.3722222222223, N
403952, 1122.088888888889, N
404203, 1122.786111111111, N
404453, 1123.4805555555556, N
404706, 1124.1833333333334, N
404968, 1124.911111111111, N
405222, 1125.6166666666666, N
405470, 1126.3055555555557, N
405720, 1127.0, N
405973, 1127.7027777777778, N
406227, 1128.4083333333333, N
406484, 1129.1222222222223, N
406738, 1129.8277777777778, N
406990, 1130.5277777777778, N
407238, 1131.2166666666667, N
407505, 1131.9583333333333, N
407766, 1132.6833333333334, N
408024, 1133.4, N
408273, 1134.0916666666667, N
408529, 1134.8027777777777, N
408783, 1135.5083333333334, N
409042, 1136.2277777777779, N
409296, 1136.9333333333334, N
409547, 1137.6305555555555, N
409796, 1138.3222222222223, N
410058, 1139.05, N
410317, 1139.7694444444444, N
410574, 1140.4833333333333, N
410826, 1141.1833333333334, N
411082, 1141.8944444444444, N
411337, 1142.6027777777779, N
411598, 1143.3277777777778, N
411858, 1144.05, N
412114, 1144.7611111111112, N
412365, 1145.4583333333333, N
412624, 1146.1777777777777, N
412885, 1146.9027777777778, N
413138, 1147.6055555555556, N
413389, 1148.3027777777777, N
413639, 1148.9972222222223, N
413885, 1149.6805555555557, N
414139, 1150.3861111111112, N
414394, 1151.0944444444444, N
414646, 1151.7944444444445, N
414894, 1152.4833333333333, N
415149, 1153.1916666666666, N
415408, 1153.911111111111, N
415664, 1154.6222222222223, N
415911, 1155.3083333333334, N
416164, 1156.0111111111112, N
416414, 1156.7055555555555, N
416671, 1157.4194444444445, N
416932, 1158.1444444444444, N
417183, 1158.8416666666667, N
417432, 1159.5333333333333, N
417690, 1160.25, N
417949, 1160.9694444444444, N
418203, 1161.675, N
418445, 1162.3472222222222, N
418696, 1163.0444444444445, N
418949, 1163.7472222222223, N
419205, 1164.4583333333333, N
419466, 1165.1833333333334, N
419718, 1165.8833333333334, N
419972, 1166.588888888889, N
420227, 1167.2972222222222, N
420496, 1168.0444444444445, N
420751, 1168.7527777777777, N
421005, 1169.4583333333333, N
421256, 1170.1555555555556, N
421515, 1170.875, N
421770, 1171.5833333333333, N
422032, 1172.3111111111111, N
422284, 1173.0111111111112, N
422536, 1173.7111111111112, N
422786, 1174.4055555555556, N
423049, 1175.1361111111112, N
423304, 1175.8444444444444, N
423558, 1176.55, N
423811, 1177.2527777777777, N
424067, 1177.963888888889, N
424324, 1178.6777777777777, N
424586, 1179.4055555555556, N
424847, 1180.1305555555555, N
425105, 1180.8472222222222, N
425356, 1181.5444444444445, N
425619, 1182.275, N
425876, 1182.9888888888888, N
426130, 1183.6944444444443, N
426383, 1184.3972222222221, N
426634, 1185.0944444444444, N
426885, 1185.7916666666667, N
427145, 1186.513888888889, N
427400, 1187.2222222222222, N
427653, 1187.925, N
427904, 1188.6222222222223, N
428165, 1189.3472222222222, N
428422, 1190.0611111111111, N
428680, 1190.7777777777778, N
428932, 1191.4777777777779, N
429190, 1192.1944444444443, N
429442, 1192.8944444444444, N
429702, 1193.6166666666666, N
429958, 1194.3277777777778, N
430214, 1195.0388888888888, N
430463, 1195.7305555555556, N
430721, 1196.4472222222223, N
430981, 1197.1694444444445, N
431235, 1197.875, N
431487, 1198.575, N
431740, 1199.2777777777778, N
431994, 1199.9833333333333, N
432140, 1200.388888888889, V
432507, 1201.4083333333333, N
432689, 1201.9138888888888, A
432996, 1202.7666666666667, N
433256, 1203.4888888888888, N
433522, 1204.2277777777779, N
433778, 1204.9388888888889, N
434027, 1205.6305555555555, N
434278, 1206.3277777777778, N
434530, 1207.0277777777778, N
434787, 1207.7416666666666, N
435045, 1208.4583333333333, N
435297, 1209.1583333333333, N
435549, 1209.8583333333333, N
435803, 1210.5638888888889, N
436069, 1211.3027777777777, N
436326, 1212.0166666666667, N
436578, 1212.7166666666667, N
436835, 1213.4305555555557, N
437094, 1214.15, N
437354, 1214.8722222222223, N
437616, 1215.6, N
437875, 1216.3194444444443, N
438132, 1217.0333333333333, N
438389, 1217.7472222222223, N
438653, 1218.4805555555556, N
438912, 1219.2, N
439164, 1219.9, N
439417, 1220.6027777777779, N
439676, 1221.3222222222223, N
439929, 1222.025, N
440188, 1222.7444444444445, N
440441, 1223.4472222222223, N
440697, 1224.1583333333333, N
440952, 1224.8666666666666, N
441215, 1225.5972222222222, N
441471, 1226.3083333333334, N
441726, 1227.0166666666667, N
441981, 1227.725, N
442242, 1228.45, N
442498, 1229.161111111111, N
442757, 1229.8805555555555, N
443015, 1230.5972222222222, N
443270, 1231.3055555555557, N
443526, 1232.0166666666667, N
443792, 1232.7555555555555, N
444051, 1233.475, N
444306, 1234.1833333333334, N
444560, 1234.888888888889, N
444820, 1235.611111111111, N
445079, 1236.3305555555555, N
445342, 1237.0611111111111, N
445596, 1237.7666666666667, N
445849, 1238.4694444444444, N
446103, 1239.175, N
446371, 1239.9194444444445, N
446627, 1240.6305555555555, N
446881, 1241.3361111111112, N
447135, 1242.0416666666667, N
447394, 1242.7611111111112, N
447653, 1243.4805555555556, N
447917, 1244.213888888889, N
448173, 1244.925, N
448430, 1245.638888888889, N
448685, 1246.3472222222222, N
448955, 1247.0972222222222, N
449211, 1247.8083333333334, N
449468, 1248.5222222222221, N
449724, 1249.2333333333333, N
449980, 1249.9444444444443, N
450236, 1250.6555555555556, N
450502, 1251.3944444444444, N
450767, 1252.1305555555555, N
451030, 1252.861111111111, N
451292, 1253.588888888889, N
451562, 1254.338888888889, N
451824, 1255.0666666666666, N
452085, 1255.7916666666667, N
452345, 1256.513888888889, N
452608, 1257.2444444444445, N
452872, 1257.9777777777779, N
453138, 1258.7166666666667, N
453398, 1259.4388888888889, N
453658, 1260.161111111111, N
453922, 1260.8944444444444, N
454194, 1261.65, N
454456, 1262.3777777777777, N
454711, 1263.0861111111112, N
454972, 1263.8111111111111, N
455237, 1264.5472222222222, N
455503, 1265.286111111111, N
455772, 1266.0333333333333, N
456033, 1266.7583333333334, N
456290, 1267.4722222222222, N
456555, 1268.2083333333333, N
456821, 1268.9472222222223, N
457082, 1269.6722222222222, N
457335, 1270.375, N
457594, 1271.0944444444444, N
457853, 1271.8138888888889, N
458113, 1272.536111111111, N
458379, 1273.275, N
458634, 1273.9833333333333, N
458892, 1274.7, N
459154, 1275.4277777777777, N
459426, 1276.1833333333334, N
459689, 1276.9138888888888, N
459952, 1277.6444444444444, N
460215, 1278.375, N
460477, 1279.1027777777779, N
460745, 1279.8472222222222, N
461013, 1280.5916666666667, N
461278, 1281.3277777777778, N
461534, 1282.0388888888888, N
461804, 1282.7888888888888, N
462071, 1283.5305555555556, N
462339, 1284.275, N
462598, 1284.9944444444445, N
462865, 1285.736111111111, N
463126, 1286.4611111111112, N
463395, 1287.2083333333333, N
463661, 1287.9472222222223, N
463927, 1288.6861111111111, N
464189, 1289.4138888888888, N
464459, 1290.1638888888888, N
464723, 1290.8972222222221, N
464981, 1291.6138888888888, N
465242, 1292.338888888889, N
465503, 1293.0638888888889, N
465760, 1293.7777777777778, N
466023, 1294.5083333333334, N
466279, 1295.2194444444444, N
466539, 1295.9416666666666, N
466798, 1296.661111111111, N
467065, 1297.4027777777778, N
467326, 1298.1277777777777, N
467585, 1298.8472222222222, N
467847, 1299.575, N
468116, 1300.3222222222223, N
468379, 1301.0527777777777, N
468646, 1301.7944444444445, N
468907, 1302.5194444444444, N
469170, 1303.25, N
469431, 1303.975, N
469698, 1304.7166666666667, N
469958, 1305.4388888888889, N
470212, 1306.1444444444444, N
470470, 1306.861111111111, N
470731, 1307.5861111111112, N
470992, 1308.3111111111111, N
471255, 1309.0416666666667, N
471515, 1309.763888888889, N
471772, 1310.4777777777779, N
472032, 1311.2, N
472302, 1311.95, N
472560, 1312.6666666666667, N
472815, 1313.375, N
473067, 1314.075, N
473329, 1314.8027777777777, N
473590, 1315.5277777777778, N
473851, 1316.2527777777777, N
474107, 1316.963888888889, N
474361, 1317.6694444444445, N
474615, 1318.375, N
474882, 1319.1166666666666, N
475135, 1319.8194444444443, N
475390, 1320.5277777777778, N
475645, 1321.236111111111, N
475906, 1321.9611111111112, N
476165, 1322.6805555555557, N
476424, 1323.4, N
476683, 1324.1194444444445, N
476938, 1324.8277777777778, N
477195, 1325.5416666666667, N
477456, 1326.2666666666667, N
477716, 1326.9888888888888, N
477969, 1327.6916666666666, N
478224, 1328.4, N
478482, 1329.1166666666666, N
478736, 1329.8222222222223, N
478867, 1330.1861111111111, V
479241, 1331.225, N
479498, 1331.9388888888889, N
479753, 1332.6472222222221, N
480015, 1333.375, N
480272, 1334.088888888889, N
480528, 1334.8, N
480782, 1335.5055555555555, N
481045, 1336.236111111111, N
481299, 1336.9416666666666, N
481561, 1337.6694444444445, N
481817, 1338.3805555555555, N
482075, 1339.0972222222222, N
482328, 1339.8, N
482595, 1340.5416666666667, N
482852, 1341.2555555555555, N
483108, 1341.9666666666667, N
483360, 1342.6666666666667, N
483511, 1343.0861111111112, V
483869, 1344.0805555555555, N
484130, 1344.8055555555557, N
484388, 1345.5222222222221, N
484641, 1346.225, N
484896, 1346.9333333333334, N
485159, 1347.6638888888888, N
485417, 1348.3805555555555, N
485671, 1349.0861111111112, N
485924, 1349.7888888888888, N
486179, 1350.4972222222223, N
486432, 1351.2, N
486691, 1351.9194444444445, N
486947, 1352.6305555555555, N
487203, 1353.3416666666667, N
487453, 1354.036111111111, N
487716, 1354.7666666666667, N
487975, 1355.486111111111, N
488236, 1356.2111111111112, N
488491, 1356.9194444444445, N
488753, 1357.6472222222221, N
489012, 1358.3666666666666, N
489280, 1359.111111111111, N
489543, 1359.8416666666667, N
489806, 1360.5722222222223, N
490065, 1361.2916666666667, N
490333, 1362.036111111111, N
490597, 1362.7694444444444, N
490856, 1363.4888888888888, N
491113, 1364.2027777777778, N
491374, 1364.9277777777777, N
491634, 1365.65, N
491895, 1366.375, N
492155, 1367.0972222222222, N
492288, 1367.4666666666667, V
492665, 1368.513888888889, N
492934, 1369.2611111111112, N
493193, 1369.9805555555556, N
493446, 1370.6833333333334, N
493703, 1371.3972222222221, N
493963, 1372.1194444444445, N
494222, 1372.838888888889, N
494486, 1373.5722222222223, N
494743, 1374.286111111111, N
495001, 1375.0027777777777, N
495257, 1375.713888888889, N
495526, 1376.4611111111112, N
495784, 1377.1777777777777, N
496039, 1377.8861111111112, N
496297, 1378.6027777777779, N
496557, 1379.325, N
496818, 1380.05, N
497081, 1380.7805555555556, N
497340, 1381.5, N
497597, 1382.213888888889, N
497853, 1382.925, N
498122, 1383.6722222222222, N
498385, 1384.4027777777778, N
498642, 1385.1166666666666, N
498897, 1385.825, N
499156, 1386.5444444444445, N
499416, 1387.2666666666667, N
499680, 1388.0, N
499937, 1388.713888888889, N
500193, 1389.425, N
500447, 1390.1305555555555, N
500714, 1390.8722222222223, N
500971, 1391.5861111111112, N
501230, 1392.3055555555557, N
501484, 1393.0111111111112, N
501745, 1393.736111111111, N
502005, 1394.4583333333333, N
502266, 1395.1833333333334, N
502526, 1395.9055555555556, N
502783, 1396.6194444444445, N
503041, 1397.3361111111112, N
503309, 1398.0805555555555, N
503569, 1398.8027777777777, N
503827, 1399.5194444444444, N
504090, 1400.25, N
504355, 1400.986111111111, N
504621, 1401.725, N
504889, 1402.4694444444444, N
505155, 1403.2083333333333, N
505422, 1403.95, N
505691, 1404.6972222222223, N
505964, 1405.4555555555555, N
506231, 1406.1972222222223, N
506496, 1406.9333333333334, N
506763, 1407.675, N
507031, 1408.4194444444445, N
507300, 1409.1666666666667, N
507575, 1409.9305555555557, N
507844, 1410.6777777777777, N
508108, 1411.411111111111, N
508379, 1412.1638888888888, N
508650, 1412.9166666666667, N
508915, 1413.6527777777778, N
509175, 1414.375, N
509441, 1415.1138888888888, N
509705, 1415.8472222222222, N
509971, 1416.5861111111112, N
510239, 1417.3305555555555, N
510504, 1418.0666666666666, N
510765, 1418.7916666666667, N
511035, 1419.5416666666667, N
511302, 1420.2833333333333, N
511563, 1421.0083333333334, N
511824, 1421.7333333333333, N
512087, 1422.463888888889, N
512346, 1423.1833333333334, N
512611, 1423.9194444444445, N
512870, 1424.638888888889, N
513129, 1425.3583333333333, N
513383, 1426.0638888888889, N
513649, 1426.8027777777777, N
513906, 1427.5166666666667, N
514165, 1428.236111111111, N
514419, 1428.9416666666666, N
514596, 1429.4333333333334, V
514934, 1430.3722222222223, N
515079, 1430.775, V
515457, 1431.825, N
515718, 1432.55, N
515972, 1433.2555555555555, N
516236, 1433.9888888888888, N
516493, 1434.7027777777778, N
516750, 1435.4166666666667, N
517001, 1436.1138888888888, N
517258, 1436.8277777777778, N
517511, 1437.5305555555556, N
517772, 1438.2555555555555, N
518031, 1438.975, N
518289, 1439.6916666666666, N
518548, 1440.411111111111, N
518816, 1441.1555555555556, N
519079, 1441.8861111111112, N
519342, 1442.6166666666666, N
519606, 1443.35, N
519871, 1444.0861111111112, N
520136, 1444.8222222222223, N
520407, 1445.575, N
520670, 1446.3055555555557, N
520931, 1447.0305555555556, N
521193, 1447.7583333333334, N
521464, 1448.5111111111112, N
521727, 1449.2416666666666, N
521981, 1449.9472222222223, N
522241, 1450.6694444444445, N
522500, 1451.388888888889, N
522764, 1452.1222222222223, N
523031, 1452.8638888888888, N
523293, 1453.5916666666667, N
523550, 1454.3055555555557, N
523818, 1455.05, N
524091, 1455.8083333333334, N
524231, 1456.1972222222223, V
524623, 1457.286111111111, N
524887, 1458.0194444444444, N
525153, 1458.7583333333334, N
525417, 1459.4916666666666, N
525692, 1460.2555555555555, N
525782, 1460.5055555555555, +
525834, 1460.65, V
526172, 1461.588888888889, V
526365, 1462.125, V
526500, 1462.5, V
526612, 1462.8111111111111, V
526709, 1463.0805555555555, V
526806, 1463.35, V
526912, 1463.6444444444444, V
527025, 1463.9583333333333, V
527128, 1464.2444444444445, V
527235, 1464.5416666666667, V
527332, 1464.8111111111111, V
527470, 1465.1944444444443, +
527505, 1465.2916666666667, N
527698, 1465.8277777777778, +
527756, 1465.9888888888888, V
527992, 1466.6444444444444, V
528248, 1467.3555555555556, V
528487, 1468.0194444444444, V
528735, 1468.7083333333333, V
528966, 1469.35, V
529240, 1470.111111111111, V
529525, 1470.9027777777778, V
529783, 1471.6194444444445, V
530064, 1472.4, V
530324, 1473.1222222222223, V
530508, 1473.6333333333334, V
530612, 1473.9222222222222, V
530816, 1474.4888888888888, +
530897, 1474.713888888889, N
531089, 1475.2472222222223, A
531393, 1476.0916666666667, N
531540, 1476.5, +
531630, 1476.75, V
531821, 1477.2805555555556, V
531934, 1477.5944444444444, V
532127, 1478.1305555555555, +
532186, 1478.2944444444445, N
532444, 1479.0111111111112, N
532707, 1479.7416666666666, N
532972, 1480.4777777777779, N
533240, 1481.2222222222222, N
533506, 1481.9611111111112, N
533772, 1482.7, N
534034, 1483.4277777777777, N
534167, 1483.7972222222222, V
534571, 1484.9194444444445, N
534833, 1485.6472222222221, N
535091, 1486.3638888888888, N
535356, 1487.1, N
535618, 1487.8277777777778, N
535883, 1488.5638888888889, N
536143, 1489.286111111111, N
536402, 1490.0055555555555, N
536662, 1490.7277777777779, N
536934, 1491.4833333333333, N
537198, 1492.2166666666667, N
537453, 1492.925, N
537713, 1493.6472222222221, N
537974, 1494.3722222222223, N
538238, 1495.1055555555556, N
538499, 1495.8305555555555, N
538755, 1496.5416666666667, N
539011, 1497.2527777777777, N
539267, 1497.963888888889, N
539535, 1498.7083333333333, N
539794, 1499.4277777777777, N
540049, 1500.1361111111112, N
540309, 1500.8583333333333, N
540573, 1501.5916666666667, N
540838, 1502.3277777777778, N
541107, 1503.075, N
541368, 1503.8, N
541634, 1504.5388888888888, N
541900, 1505.2777777777778, N
542175, 1506.0416666666667, N
542441, 1506.7805555555556, N
542698, 1507.4944444444445, N
542960, 1508.2222222222222, N
543221, 1508.9472222222223, N
543485, 1509.6805555555557, N
543753, 1510.425, N
544012, 1511.1444444444444, N
544269, 1511.8583333333333, N
544535, 1512.5972222222222, N
544805, 1513.3472222222222, N
545070, 1514.0833333333333, N
545324, 1514.7888888888888, N
545585, 1515.513888888889, N
545851, 1516.2527777777777, N
546116, 1516.9888888888888, N
546387, 1517.7416666666666, N
546645, 1518.4583333333333, N
546903, 1519.175, N
547169, 1519.9138888888888, N
547437, 1520.6583333333333, N
547700, 1521.388888888889, N
547956, 1522.1, N
548222, 1522.838888888889, N
548483, 1523.5638888888889, N
548755, 1524.3194444444443, N
549023, 1525.0638888888889, N
549293, 1525.8138888888889, N
549553, 1526.536111111111, N
549826, 1527.2944444444445, N
550101, 1528.0583333333334, N
550368, 1528.8, N
550637, 1529.5472222222222, N
550904, 1530.2888888888888, N
551172, 1531.0333333333333, N
551446, 1531.7944444444445, N
551715, 1532.5416666666667, N
551982, 1533.2833333333333, N
552248, 1534.0222222222221, N
552526, 1534.7944444444445, N
552797, 1535.5472222222222, N
553061, 1536.2805555555556, N
553330, 1537.0277777777778, N
553597, 1537.7694444444444, N
553865, 1538.513888888889, N
554143, 1539.286111111111, N
554409, 1540.025, N
554674, 1540.7611111111112, N
554943, 1541.5083333333334, N
555210, 1542.25, N
555474, 1542.9833333333333, N
555732, 1543.7, N
555994, 1544.4277777777777, N
556251, 1545.1416666666667, N
556514, 1545.8722222222223, N
556774, 1546.5944444444444, N
557034, 1547.3166666666666, N
557294, 1548.0388888888888, N
557561, 1548.7805555555556, N
557826, 1549.5166666666667, N
558090, 1550.25, N
558354, 1550.9833333333333, N
558624, 1551.7333333333333, N
558891, 1552.475, N
559162, 1553.2277777777779, N
559427, 1553.963888888889, N
559694, 1554.7055555555555, N
559956, 1555.4333333333334, N
560231, 1556.1972222222223, N
560494, 1556.9277777777777, N
560754, 1557.65, N
561012, 1558.3666666666666, N
561275, 1559.0972222222222, N
561538, 1559.8277777777778, N
561807, 1560.575, N
562066, 1561.2944444444445, N
562325, 1562.013888888889, N
562589, 1562.7472222222223, N
562859, 1563.4972222222223, N
563125, 1564.236111111111, N
563381, 1564.9472222222223, N
563643, 1565.675, N
563906, 1566.4055555555556, N
564173, 1567.1472222222221, N
564441, 1567.8916666666667, N
564704, 1568.6222222222223, N
564961, 1569.3361111111112, N
565230, 1570.0833333333333, N
565497, 1570.825, N
565762, 1571.5611111111111, N
566021, 1572.2805555555556, N
566286, 1573.0166666666667, N
566552, 1573.7555555555555, N
566821, 1574.5027777777777, N
567091, 1575.2527777777777, N
567358, 1575.9944444444445, N
567621, 1576.725, N
567895, 1577.486111111111, N
568164, 1578.2333333333333, N
568433, 1578.9805555555556, N
568697, 1579.713888888889, N
568968, 1580.4666666666667, N
569232, 1581.2, N
569501, 1581.9472222222223, N
569765, 1582.6805555555557, N
570030, 1583.4166666666667, N
570290, 1584.138888888889, N
570563, 1584.8972222222221, N
570829, 1585.6361111111112, N
571086, 1586.35, N
571349, 1587.0805555555555, N
571611, 1587.8083333333334, N
571880, 1588.5555555555557, N
572149, 1589.3027777777777, N
572410, 1590.0277777777778, N
572671, 1590.7527777777777, N
572937, 1591.4916666666666, N
573210, 1592.25, N
573474, 1592.9833333333333, N
573733, 1593.7027777777778, N
573994, 1594.4277777777777, N
574259, 1595.1638888888888, N
574524, 1595.9, N
574793, 1596.6472222222221, N
575057, 1597.3805555555555, N
575316, 1598.1, N
575586, 1598.85, N
575858, 1599.6055555555556, N
576126, 1600.35, N
576387, 1601.075, N
576655, 1601.8194444444443, N
576917, 1602.5472222222222, N
577187, 1603.2972222222222, N
577456, 1604.0444444444445, N
577719, 1604.775, N
577979, 1605.4972222222223, N
578247, 1606.2416666666666, N
578510, 1606.9722222222222, N
578772, 1607.7, N
579033, 1608.425, N
579296, 1609.1555555555556, N
579559, 1609.8861111111112, N
579823, 1610.6194444444445, N
580088, 1611.3555555555556, N
580352, 1612.088888888889, N
580614, 1612.8166666666666, N
580883, 1613.5638888888889, N
581145, 1614.2916666666667, N
581407, 1615.0194444444444, N
581665, 1615.736111111111, N
581931, 1616.475, N
582190, 1617.1944444444443, N
582455, 1617.9305555555557, N
582713, 1618.6472222222221, N
582973, 1619.3694444444445, N
583232, 1620.088888888889, N
583500, 1620.8333333333333, N
583761, 1621.5583333333334, N
584017, 1622.2694444444444, N
584278, 1622.9944444444445, N
584542, 1623.7277777777779, N
584807, 1624.463888888889, N
585073, 1625.2027777777778, N
585334, 1625.9277777777777, N
585594, 1626.65, N
585856, 1627.3777777777777, N
586127, 1628.1305555555555, N
586391, 1628.8638888888888, N
586649, 1629.5805555555555, N
586910, 1630.3055555555557, N
587172, 1631.0333333333333, N
587437, 1631.7694444444444, N
587708, 1632.5222222222221, N
587970, 1633.25, N
588231, 1633.975, N
588500, 1634.7222222222222, N
588774, 1635.4833333333333, N
589045, 1636.236111111111, N
589307, 1636.963888888889, N
589572, 1637.7, N
589835, 1638.4305555555557, N
590102, 1639.1722222222222, N
590369, 1639.9138888888888, N
590632, 1640.6444444444444, N
590888, 1641.3555555555556, N
591157, 1642.1027777777779, N
591419, 1642.8305555555555, N
591681, 1643.5583333333334, N
591940, 1644.2777777777778, N
592203, 1645.0083333333334, N
592468, 1645.7444444444445, N
592733, 1646.4805555555556, N
593000, 1647.2222222222222, N
593265, 1647.9583333333333, N
593532, 1648.7, N
593808, 1649.4666666666667, N
594075, 1650.2083333333333, N
594338, 1650.9388888888889, N
594504, 1651.4, V
594869, 1652.4138888888888, N
595135, 1653.1527777777778, N
595405, 1653.9027777777778, N
595665, 1654.625, N
595927, 1655.3527777777779, N
596191, 1656.0861111111112, N
596465, 1656.8472222222222, N
596730, 1657.5833333333333, N
596990, 1658.3055555555557, N
597257, 1659.0472222222222, N
597521, 1659.7805555555556, N
597795, 1660.5416666666667, N
598064, 1661.2888888888888, N
598330, 1662.0277777777778, N
598591, 1662.7527777777777, N
598862, 1663.5055555555555, N
599131, 1664.2527777777777, N
599394, 1664.9833333333333, N
599652, 1665.7, N
599914, 1666.4277777777777, N
600178, 1667.161111111111, N
600445, 1667.9027777777778, N
600710, 1668.638888888889, N
600976, 1669.3777777777777, N
601239, 1670.1083333333333, N
601514, 1670.8722222222223, N
601780, 1671.611111111111, N
602047, 1672.3527777777779, N
602312, 1673.088888888889, N
602583, 1673.8416666666667, N
602852, 1674.588888888889, N
603124, 1675.3444444444444, N
603387, 1676.075, N
603649, 1676.8027777777777, N
603913, 1677.536111111111, N
604185, 1678.2916666666667, N
604451, 1679.0305555555556, N
604709, 1679.7472222222223, N
604976, 1680.4888888888888, N
605239, 1681.2194444444444, N
605508, 1681.9666666666667, N
605645, 1682.3472222222222, V
606038, 1683.4388888888889, N
606298, 1684.161111111111, N
606453, 1684.5916666666667, V
606828, 1685.6333333333334, N
607090, 1686.361111111111, N
607346, 1687.0722222222223, N
607603, 1687.786111111111, N
607861, 1688.5027777777777, N
608122, 1689.2277777777779, N
608298, 1689.7166666666667, V
608641, 1690.6694444444445, N
608898, 1691.3833333333334, N
609163, 1692.1194444444445, N
609430, 1692.861111111111, N
609692, 1693.588888888889, N
609948, 1694.3, N
610208, 1695.0222222222221, N
610467, 1695.7416666666666, N
610734, 1696.4833333333333, N
611000, 1697.2222222222222, N
611261, 1697.9472222222223, N
611516, 1698.6555555555556, N
611782, 1699.3944444444444, N
612049, 1700.1361111111112, N
612312, 1700.8666666666666, N
612570, 1701.5833333333333, N
612829, 1702.3027777777777, N
613089, 1703.025, N
613353, 1703.7583333333334, N
613619, 1704.4972222222223, N
613882, 1705.2277777777779, N
614138, 1705.9388888888889, N
614405, 1706.6805555555557, N
614670, 1707.4166666666667, N
614935, 1708.1527777777778, N
615195, 1708.875, N
615454, 1709.5944444444444, N
615713, 1710.3138888888889, N
615980, 1711.0555555555557, N
616120, 1711.4444444444443, V
616506, 1712.5166666666667, N
616761, 1713.225, N
617028, 1713.9666666666667, N
617288, 1714.6888888888889, N
617548, 1715.411111111111, N
617804, 1716.1222222222223, N
618067, 1716.8527777777779, N
618330, 1717.5833333333333, N
618593, 1718.3138888888889, N
618859, 1719.0527777777777, N
619124, 1719.7888888888888, N
619390, 1720.5277777777778, N
619660, 1721.2777777777778, N
619927, 1722.0194444444444, N
620189, 1722.7472222222223, N
620452, 1723.4777777777779, N
620721, 1724.225, N
620985, 1724.9583333333333, N
621253, 1725.7027777777778, N
621514, 1726.4277777777777, N
621778, 1727.161111111111, N
622043, 1727.8972222222221, N
622315, 1728.6527777777778, N
622582, 1729.3944444444444, N
622844, 1730.1222222222223, N
623111, 1730.8638888888888, N
623376, 1731.6, N
623648, 1732.3555555555556, N
623921, 1733.1138888888888, N
624188, 1733.8555555555556, N
624448, 1734.5777777777778, N
624719, 1735.3305555555555, N
624990, 1736.0833333333333, N
625258, 1736.8277777777778, N
625517, 1737.5472222222222, N
625782, 1738.2833333333333, N
626044, 1739.0111111111112, N
626310, 1739.75, N
626575, 1740.486111111111, N
626837, 1741.213888888889, N
627098, 1741.9388888888889, N
627371, 1742.6972222222223, N
627632, 1743.4222222222222, N
627895, 1744.1527777777778, N
628154, 1744.8722222222223, N
628420, 1745.611111111111, N
628686, 1746.35, N
628952, 1747.088888888889, N
629214, 1747.8166666666666, N
629477, 1748.5472222222222, N
629741, 1749.2805555555556, N
630013, 1750.036111111111, N
630272, 1750.7555555555555, N
630531, 1751.475, N
630793, 1752.2027777777778, N
631056, 1752.9333333333334, N
631322, 1753.6722222222222, N
631587, 1754.4083333333333, N
631849, 1755.1361111111112, N
632109, 1755.8583333333333, N
632377, 1756.6027777777779, N
632646, 1757.35, N
632909, 1758.0805555555555, N
633167, 1758.7972222222222, N
633431, 1759.5305555555556, N
633692, 1760.2555555555555, N
633957, 1760.9916666666666, N
634222, 1761.7277777777779, N
634481, 1762.4472222222223, N
634739, 1763.1638888888888, N
635004, 1763.9, N
635272, 1764.6444444444444, N
635532, 1765.3666666666666, N
635788, 1766.0777777777778, N
636050, 1766.8055555555557, N
636313, 1767.536111111111, N
636584, 1768.2888888888888, N
636848, 1769.0222222222221, N
637114, 1769.7611111111112, N
637376, 1770.4888888888888, N
637649, 1771.2472222222223, N
637913, 1771.9805555555556, N
638176, 1772.7111111111112, N
638434, 1773.4277777777777, N
638697, 1774.1583333333333, N
638958, 1774.8833333333334, N
639223, 1775.6194444444445, N
639483, 1776.3416666666667, N
639741, 1777.0583333333334, N
640001, 1777.7805555555556, N
640272, 1778.5333333333333, N
640539, 1779.275, N
640802, 1780.0055555555555, N
641067, 1780.7416666666666, N
641335, 1781.486111111111, N
641607, 1782.2416666666666, N
641876, 1782.9888888888888, N
642144, 1783.7333333333333, N
642408, 1784.4666666666667, N
642676, 1785.2111111111112, N
642951, 1785.975, N
643216, 1786.7111111111112, N
643475, 1787.4305555555557, N
643738, 1788.161111111111, N
644002, 1788.8944444444444, N
644272, 1789.6444444444444, N
644539, 1790.3861111111112, N
644805, 1791.125, N
645069, 1791.8583333333333, N
645343, 1792.6194444444445, N
645616, 1793.3777777777777, N
645882, 1794.1166666666666, N
646144, 1794.8444444444444, N
646412, 1795.588888888889, N
646678, 1796.3277777777778, N
646945, 1797.0694444444443, N
647210, 1797.8055555555557, N
647472, 1798.5333333333333, N
647735, 1799.263888888889, N
648007, 1800.0194444444444, N
648271, 1800.7527777777777, N
648533, 1801.4805555555556, N
648795, 1802.2083333333333, N
649060, 1802.9444444444443, N
649326, 1803.6833333333334, N
649596, 1804.4333333333334, N
649857, 1805.1583333333333, N
