9, 0.025, +
50, 0.1388888888888889, R
312, 0.8666666666666667, V
835, 2.3194444444444446, R
1078, 2.9944444444444445, V
1588, 4.411111111111111, R
1821, 5.058333333333334, V
2342, 6.5055555555555555, R
2593, 7.2027777777777775, V
3111, 8.641666666666667, R
3357, 9.325, V
3857, 10.713888888888889, R
4092, 11.366666666666667, V
4637, 12.880555555555556, R
4889, 13.580555555555556, V
5409, 15.025, R
5648, 15.688888888888888, V
6160, 17.11111111111111, R
6408, 17.8, V
6939, 19.275, R
7191, 19.975, V
7700, 21.38888888888889, R
7937, 22.04722222222222, V
8437, 23.43611111111111, R
8694, 24.15, V
9215, 25.59722222222222, R
9463, 26.28611111111111, V
9949, 27.636111111111113, R
10196, 28.322222222222223, V
10689, 29.691666666666666, R
10939, 30.386111111111113, V
11450, 31.805555555555557, R
11699, 32.49722222222222, V
12197, 33.88055555555555, R
12436, 34.544444444444444, V
12936, 35.93333333333333, R
13200, 36.666666666666664, V
13348, 37.077777777777776, V
13717, 38.102777777777774, L
13868, 38.522222222222226, +
13967, 38.797222222222224, V
14125, 39.236111111111114, V
14263, 39.61944444444445, V
14414, 40.03888888888889, +
14522, 40.33888888888889, L
14665, 40.736111111111114, [
14689, 40.80277777777778, +
14894, 41.37222222222222, !
15018, 41.71666666666667, !
15138, 42.05, !
15258, 42.38333333333333, !
15387, 42.74166666666667, !
15519, 43.108333333333334, !
15642, 43.45, !
15759, 43.775, !
15906, 44.18333333333333, !
16015, 44.486111111111114, !
16138, 44.827777777777776, !
16262, 45.172222222222224, !
16383, 45.50833333333333, !
16496, 45.82222222222222, !
16611, 46.141666666666666, !
16710, 46.416666666666664, !
16822, 46.727777777777774, !
16936, 47.044444444444444, !
17055, 47.375, !
17218, 47.827777777777776, !
17346, 48.18333333333333, !
17509, 48.63611111111111, !
17618, 48.93888888888889, !
17730, 49.25, !
17857, 49.602777777777774, !
17976, 49.93333333333333, !
18132, 50.36666666666667, !
18256, 50.71111111111111, !
18350, 50.97222222222222, ]
18396, 51.1, +
18825, 52.291666666666664, R
19070, 52.97222222222222, V
19579, 54.38611111111111, R
19715, 54.763888888888886, [
19760, 54.888888888888886, +
19836, 55.1, !
19964, 55.455555555555556, !
20077, 55.769444444444446, !
20183, 56.06388888888889, !
20297, 56.38055555555555, !
20402, 56.672222222222224, !
20521, 57.00277777777778, !
20640, 57.333333333333336, !
20748, 57.63333333333333, !
20851, 57.919444444444444, !
20962, 58.227777777777774, !
21092, 58.58888888888889, !
21183, 58.84166666666667, !
21315, 59.208333333333336, !
21432, 59.53333333333333, !
21608, 60.022222222222226, !
21731, 60.36388888888889, ]
21827, 60.63055555555555, +
22117, 61.43611111111111, R
22262, 61.83888888888889, +
22383, 62.175, V
22513, 62.53611111111111, V
22665, 62.958333333333336, V
22774, 63.26111111111111, +
22883, 63.56388888888889, L
23174, 64.37222222222222, L
23502, 65.28333333333333, L
23746, 65.96111111111111, V
24177, 67.15833333333333, R
24535, 68.15277777777777, L
24866, 69.07222222222222, L
25185, 69.95833333333333, L
25496, 70.82222222222222, L
25627, 71.18611111111112, +
25758, 71.55, V
26164, 72.67777777777778, L
26399, 73.33055555555555, V
26810, 74.47222222222223, R
27055, 75.15277777777777, V
27256, 75.71111111111111, +
27458, 76.27222222222223, R
27785, 77.18055555555556, L
28039, 77.8861111111111, V
28182, 78.28333333333333, V
28717, 79.76944444444445, R
28965, 80.45833333333333, V
29115, 80.875, V
29455, 81.81944444444444, R
29847, 82.90833333333333, L
30088, 83.57777777777778, V
30567, 84.90833333333333, R
30831, 85.64166666666667, V
31261, 86.83611111111111, R
31614, 87.81666666666666, L
31944, 88.73333333333333, L
32284, 89.67777777777778, L
32637, 90.65833333333333, L
32985, 91.625, L
33339, 92.60833333333333, L
33604, 93.34444444444445, V
33996, 94.43333333333334, R
34347, 95.40833333333333, L
34708, 96.41111111111111, L
35076, 97.43333333333334, L
35420, 98.38888888888889, L
35760, 99.33333333333333, L
36105, 100.29166666666667, L
36439, 101.21944444444445, L
36792, 102.2, L
37147, 103.18611111111112, L
37500, 104.16666666666667, L
37848, 105.13333333333334, L
38182, 106.06111111111112, L
38509, 106.96944444444445, L
38867, 107.96388888888889, L
39234, 108.98333333333333, L
39575, 109.93055555555556, L
39924, 110.9, L
40264, 111.84444444444445, L
40599, 112.775, L
40951, 113.75277777777778, L
41301, 114.725, L
41654, 115.70555555555555, L
42000, 116.66666666666667, L
42331, 117.58611111111111, L
42660, 118.5, L
42985, 119.40277777777777, L
43334, 120.37222222222222, L
43685, 121.34722222222223, L
44020, 122.27777777777777, L
44354, 123.20555555555555, L
44688, 124.13333333333334, L
45009, 125.025, L
45346, 125.96111111111111, L
45687, 126.90833333333333, L
46025, 127.84722222222223, L
46289, 128.58055555555555, V
46680, 129.66666666666666, L
46903, 130.2861111111111, V
47307, 131.40833333333333, R
47596, 132.2111111111111, V
47748, 132.63333333333333, V
48019, 133.38611111111112, L
48133, 133.70277777777778, +
48247, 134.01944444444445, V
48669, 135.19166666666666, R
48885, 135.79166666666666, V
49331, 137.03055555555557, R
49559, 137.6638888888889, V
50025, 138.95833333333334, R
50263, 139.61944444444444, V
50724, 140.9, R
50948, 141.5222222222222, V
51383, 142.73055555555555, R
51603, 143.34166666666667, V
52089, 144.69166666666666, R
52320, 145.33333333333334, V
52785, 146.625, R
53012, 147.25555555555556, V
53471, 148.53055555555557, R
53692, 149.14444444444445, V
54160, 150.44444444444446, R
54401, 151.11388888888888, V
54868, 152.4111111111111, R
55103, 153.0638888888889, V
55558, 154.32777777777778, R
55775, 154.93055555555554, V
56266, 156.29444444444445, R
56508, 156.96666666666667, V
56974, 158.26111111111112, R
57206, 158.90555555555557, V
57666, 160.18333333333334, R
57893, 160.8138888888889, V
58370, 162.13888888888889, R
58607, 162.79722222222222, V
59089, 164.13611111111112, R
59320, 164.77777777777777, V
59785, 166.06944444444446, R
60004, 166.67777777777778, V
60491, 168.03055555555557, R
60731, 168.69722222222222, V
61217, 170.04722222222222, R
61441, 170.66944444444445, V
61911, 171.975, R
62136, 172.6, V
62601, 173.89166666666668, R
62835, 174.54166666666666, V
63324, 175.9, R
63552, 176.53333333333333, V
64032, 177.86666666666667, R
64249, 178.46944444444443, V
64729, 179.80277777777778, R
64967, 180.4638888888889, V
65457, 181.825, R
65681, 182.44722222222222, V
66157, 183.76944444444445, R
66375, 184.375, V
66859, 185.71944444444443, R
67097, 186.38055555555556, V
67591, 187.75277777777777, R
67819, 188.38611111111112, V
68300, 189.72222222222223, R
68521, 190.3361111111111, V
68995, 191.65277777777777, R
69207, 192.24166666666667, V
69733, 193.70277777777778, R
69933, 194.25833333333333, V
70434, 195.65, R
70665, 196.29166666666666, V
71131, 197.5861111111111, R
71340, 198.16666666666666, V
71865, 199.625, R
72071, 200.19722222222222, V
72581, 201.61388888888888, R
72791, 202.19722222222222, V
73279, 203.55277777777778, R
73494, 204.15, V
74019, 205.60833333333332, R
74233, 206.20277777777778, V
74726, 207.57222222222222, R
74943, 208.175, V
75429, 209.525, R
75639, 210.10833333333332, V
76172, 211.5888888888889, R
76380, 212.16666666666666, V
76886, 213.57222222222222, R
77082, 214.11666666666667, V
77584, 215.51111111111112, R
77794, 216.09444444444443, V
78330, 217.58333333333334, R
78533, 218.1472222222222, V
79047, 219.575, R
79249, 220.13611111111112, V
79747, 221.51944444444445, R
79958, 222.10555555555555, V
80490, 223.58333333333334, R
80697, 224.15833333333333, V
81212, 225.5888888888889, R
81410, 226.13888888888889, V
81909, 227.525, R
82121, 228.11388888888888, V
82643, 229.5638888888889, R
82844, 230.12222222222223, V
83355, 231.54166666666666, R
83557, 232.1027777777778, V
84062, 233.50555555555556, R
84300, 234.16666666666666, V
84806, 235.57222222222222, R
85014, 236.15, V
85514, 237.5388888888889, R
85712, 238.0888888888889, V
86215, 239.48611111111111, R
86425, 240.06944444444446, V
86540, 240.38888888888889, +
86656, 240.7111111111111, R
87039, 241.775, L
87172, 242.14444444444445, [
87214, 242.26111111111112, +
87273, 242.425, !
87403, 242.7861111111111, !
87521, 243.11388888888888, !
87644, 243.45555555555555, !
87753, 243.75833333333333, !
87881, 244.11388888888888, !
87999, 244.44166666666666, !
88121, 244.78055555555557, !
88259, 245.1638888888889, !
88392, 245.53333333333333, !
88517, 245.88055555555556, !
88638, 246.21666666666667, !
88716, 246.43333333333334, ]
88788, 246.63333333333333, +
89131, 247.5861111111111, R
89242, 247.89444444444445, [
89320, 248.11111111111111, +
89372, 248.25555555555556, !
89477, 248.54722222222222, !
89627, 248.9638888888889, !
89766, 249.35, !
89890, 249.69444444444446, !
90002, 250.00555555555556, !
90131, 250.36388888888888, !
90237, 250.65833333333333, !
90360, 251.0, !
90466, 251.29444444444445, !
90594, 251.65, !
90724, 252.01111111111112, !
90853, 252.36944444444444, !
90966, 252.68333333333334, !
91077, 252.99166666666667, !
91185, 253.29166666666666, !
91315, 253.65277777777777, !
91425, 253.95833333333334, !
91538, 254.2722222222222, !
91667, 254.63055555555556, !
91776, 254.93333333333334, !
91879, 255.21944444444443, !
91995, 255.54166666666666, !
92101, 255.8361111111111, !
92210, 256.1388888888889, !
92321, 256.4472222222222, !
92424, 256.73333333333335, !
92524, 257.0111111111111, !
92628, 257.3, !
92737, 257.60277777777776, !
92838, 257.8833333333333, !
92953, 258.2027777777778, !
93049, 258.46944444444443, !
93172, 258.81111111111113, !
93297, 259.15833333333336, !
93430, 259.52777777777777, !
93539, 259.8305555555556, !
93668, 260.18888888888887, !
93802, 260.56111111111113, !
93941, 260.9472222222222, !
94122, 261.45, ]
94220, 261.72222222222223, +
94437, 262.325, L
94680, 263.0, V
95206, 264.4611111111111, L
95566, 265.4611111111111, L
95920, 266.44444444444446, L
96163, 267.11944444444447, V
96300, 267.5, V
96905, 269.18055555555554, L
97008, 269.46666666666664, [
97051, 269.5861111111111, +
97130, 269.80555555555554, !
97280, 270.22222222222223, !
97384, 270.5111111111111, !
97495, 270.81944444444446, !
97608, 271.1333333333333, !
97729, 271.46944444444443, !
97825, 271.7361111111111, !
97939, 272.0527777777778, !
98054, 272.3722222222222, !
98168, 272.68888888888887, !
98277, 272.9916666666667, !
98376, 273.26666666666665, !
98484, 273.56666666666666, !
98551, 273.7527777777778, !
98651, 274.03055555555557, !
98750, 274.30555555555554, !
98856, 274.6, !
98946, 274.85, !
99056, 275.15555555555557, !
99162, 275.45, !
99277, 275.76944444444445, !
99374, 276.0388888888889, !
99491, 276.3638888888889, !
99597, 276.65833333333336, !
99691, 276.9194444444444, !
99809, 277.2472222222222, !
99909, 277.525, !
100001, 277.78055555555557, !
100107, 278.075, !
100214, 278.3722222222222, !
100312, 278.64444444444445, !
100424, 278.9555555555556, !
100545, 279.2916666666667, !
100671, 279.64166666666665, !
100804, 280.0111111111111, !
100956, 280.43333333333334, !
101126, 280.90555555555557, ]
101185, 281.06944444444446, +
101423, 281.73055555555555, L
101715, 282.5416666666667, V
101933, 283.14722222222224, ~
102147, 283.7416666666667, L
102382, 284.39444444444445, V
102782, 285.50555555555553, L
103088, 286.35555555555555, L
103386, 287.18333333333334, L
103696, 288.0444444444444, L
104006, 288.90555555555557, L
104306, 289.7388888888889, L
104598, 290.55, L
104886, 291.35, L
105175, 292.15277777777777, L
105447, 292.90833333333336, L
105734, 293.7055555555556, L
106041, 294.55833333333334, L
106339, 295.3861111111111, L
106628, 296.18888888888887, L
106919, 296.9972222222222, L
107198, 297.77222222222224, L
107470, 298.52777777777777, L
107747, 299.2972222222222, L
108033, 300.09166666666664, L
108314, 300.8722222222222, L
108581, 301.6138888888889, L
108704, 301.9555555555556, ~
108856, 302.3777777777778, L
109118, 303.10555555555555, L
109387, 303.85277777777776, L
109654, 304.59444444444443, L
109914, 305.31666666666666, L
110187, 306.075, L
110470, 306.8611111111111, L
110747, 307.63055555555553, L
111017, 308.38055555555553, L
111284, 309.1222222222222, L
111541, 309.8361111111111, L
111757, 310.43611111111113, ~
111805, 310.56944444444446, L
112063, 311.2861111111111, L
112345, 312.06944444444446, L
112624, 312.84444444444443, L
112896, 313.6, L
113159, 314.3305555555556, L
113427, 315.075, L
113695, 315.81944444444446, L
113961, 316.55833333333334, L
114216, 317.26666666666665, L
114493, 318.0361111111111, L
114772, 318.81111111111113, L
115053, 319.59166666666664, L
115325, 320.34722222222223, L
115469, 320.7472222222222, ~
115593, 321.09166666666664, L
115852, 321.81111111111113, L
116108, 322.52222222222224, L
116372, 323.25555555555553, L
116647, 324.01944444444445, L
116923, 324.7861111111111, L
117198, 325.55, L
117462, 326.28333333333336, L
117716, 326.9888888888889, L
117972, 327.7, L
118210, 328.3611111111111, L
118446, 329.01666666666665, L
118694, 329.7055555555556, L
118938, 330.3833333333333, L
119204, 331.1222222222222, L
119451, 331.80833333333334, L
119698, 332.49444444444447, L
119946, 333.18333333333334, L
120177, 333.825, L
120425, 334.5138888888889, L
120675, 335.2083333333333, L
120774, 335.48333333333335, ~
120926, 335.90555555555557, L
121202, 336.6722222222222, L
121462, 337.39444444444445, L
121712, 338.0888888888889, L
121788, 338.3, ~
121976, 338.8222222222222, L
122222, 339.50555555555553, L
122490, 340.25, L
122747, 340.9638888888889, L
123025, 341.7361111111111, L
123316, 342.5444444444444, L
123603, 343.34166666666664, L
123885, 344.125, L
124160, 344.8888888888889, L
124432, 345.64444444444445, L
124554, 345.98333333333335, ~
124704, 346.4, L
124978, 347.1611111111111, L
125262, 347.95, L
125543, 348.73055555555555, L
125827, 349.51944444444445, L
126101, 350.28055555555557, L
126374, 351.0388888888889, L
126649, 351.8027777777778, L
126914, 352.5388888888889, L
127180, 353.27777777777777, L
127461, 354.05833333333334, L
127752, 354.8666666666667, L
128034, 355.65, L
128311, 356.4194444444444, L
128579, 357.1638888888889, L
128845, 357.90277777777777, L
129108, 358.6333333333333, L
129382, 359.39444444444445, L
129671, 360.1972222222222, L
129957, 360.9916666666667, L
130230, 361.75, L
130504, 362.5111111111111, L
130784, 363.2888888888889, L
131056, 364.0444444444444, L
131313, 364.7583333333333, L
131591, 365.53055555555557, L
131878, 366.3277777777778, L
132165, 367.125, L
132448, 367.9111111111111, L
132725, 368.68055555555554, L
132992, 369.4222222222222, L
133261, 370.1694444444444, L
133533, 370.925, L
133813, 371.7027777777778, L
134102, 372.50555555555553, L
134386, 373.2944444444444, L
134664, 374.06666666666666, L
134943, 374.84166666666664, L
135219, 375.60833333333335, L
135492, 376.3666666666667, L
135764, 377.1222222222222, L
136048, 377.9111111111111, L
136343, 378.73055555555555, L
136636, 379.5444444444444, L
136920, 380.3333333333333, L
137192, 381.0888888888889, L
137467, 381.85277777777776, L
137737, 382.60277777777776, L
138016, 383.3777777777778, L
138313, 384.2027777777778, L
138609, 385.025, L
138893, 385.81388888888887, L
139182, 386.6166666666667, L
139471, 387.4194444444444, L
139750, 388.19444444444446, L
140022, 388.95, L
140312, 389.75555555555553, L
140606, 390.5722222222222, L
140909, 391.4138888888889, L
141203, 392.23055555555555, L
141487, 393.01944444444445, L
141765, 393.7916666666667, L
142047, 394.575, L
142334, 395.3722222222222, L
142636, 396.2111111111111, L
142931, 397.03055555555557, L
143223, 397.84166666666664, L
143516, 398.65555555555557, L
143805, 399.4583333333333, L
144091, 400.2527777777778, L
144374, 401.0388888888889, L
144654, 401.81666666666666, L
144961, 402.6694444444444, L
145269, 403.525, L
145562, 404.3388888888889, L
145852, 405.14444444444445, L
146139, 405.94166666666666, L
146413, 406.7027777777778, L
146709, 407.525, L
147017, 408.38055555555553, L
147319, 409.21944444444443, L
147613, 410.0361111111111, L
147911, 410.8638888888889, L
148197, 411.65833333333336, L
148483, 412.4527777777778, L
148761, 413.225, L
149058, 414.05, L
149355, 414.875, L
149652, 415.7, L
149941, 416.5027777777778, L
150224, 417.2888888888889, L
150499, 418.0527777777778, L
150744, 418.73333333333335, ~
150777, 418.825, L
151069, 419.6361111111111, L
151367, 420.4638888888889, L
151602, 421.1166666666667, ~
151653, 421.2583333333333, L
151941, 422.05833333333334, L
152221, 422.8361111111111, L
152501, 423.6138888888889, L
152778, 424.3833333333333, L
153049, 425.1361111111111, L
153332, 425.9222222222222, L
153633, 426.7583333333333, L
153926, 427.5722222222222, L
154206, 428.35, L
154480, 429.1111111111111, L
154756, 429.8777777777778, L
155020, 430.6111111111111, L
155304, 431.4, L
155599, 432.21944444444443, L
155888, 433.02222222222224, L
156170, 433.80555555555554, L
156456, 434.6, L
156735, 435.375, L
157010, 436.1388888888889, L
157275, 436.875, L
157553, 437.64722222222224, L
157844, 438.4555555555556, L
158136, 439.26666666666665, L
158421, 440.05833333333334, L
158701, 440.8361111111111, L
158973, 441.59166666666664, L
159247, 442.35277777777776, L
159525, 443.125, L
159775, 443.81944444444446, ~
159814, 443.9277777777778, L
160098, 444.71666666666664, L
160382, 445.50555555555553, L
160660, 446.27777777777777, L
160934, 447.0388888888889, L
161076, 447.43333333333334, ~
161212, 447.81111111111113, L
161482, 448.56111111111113, L
161745, 449.2916666666667, L
162032, 450.0888888888889, L
162329, 450.9138888888889, L
162609, 451.69166666666666, L
162882, 452.45, L
163155, 453.2083333333333, L
163427, 453.9638888888889, L
163694, 454.7055555555556, L
163979, 455.4972222222222, L
164264, 456.2888888888889, L
164549, 457.0805555555556, L
164830, 457.8611111111111, L
165115, 458.65277777777777, L
165387, 459.40833333333336, L
165657, 460.15833333333336, L
165917, 460.88055555555553, L
166196, 461.65555555555557, L
166486, 462.4611111111111, L
166775, 463.2638888888889, L
167054, 464.0388888888889, L
167333, 464.81388888888887, L
167601, 465.55833333333334, L
167874, 466.31666666666666, L
168146, 467.0722222222222, L
168427, 467.85277777777776, L
168711, 468.64166666666665, L
168993, 469.425, L
169265, 470.18055555555554, L
169540, 470.94444444444446, L
169815, 471.7083333333333, L
170080, 472.44444444444446, L
170340, 473.1666666666667, L
170465, 473.5138888888889, ~
170625, 473.9583333333333, L
170922, 474.78333333333336, L
171204, 475.56666666666666, L
171476, 476.3222222222222, L
171744, 477.06666666666666, L
172012, 477.81111111111113, L
172279, 478.5527777777778, L
172551, 479.30833333333334, L
172830, 480.0833333333333, L
173113, 480.86944444444447, L
173392, 481.64444444444445, L
173584, 482.1777777777778, ~
173673, 482.425, L
173947, 483.18611111111113, L
174219, 483.94166666666666, L
174480, 484.6666666666667, L
174758, 485.43888888888887, L
175045, 486.2361111111111, L
175333, 487.0361111111111, L
175617, 487.825, L
175897, 488.60277777777776, L
176166, 489.35, L
176441, 490.1138888888889, L
176712, 490.8666666666667, L
176993, 491.64722222222224, L
177279, 492.44166666666666, L
177566, 493.2388888888889, L
177841, 494.0027777777778, L
178122, 494.78333333333336, L
178402, 495.56111111111113, L
178673, 496.31388888888887, L
178938, 497.05, L
179228, 497.85555555555555, L
179525, 498.68055555555554, L
179810, 499.47222222222223, L
180085, 500.2361111111111, L
180359, 500.9972222222222, L
180631, 501.7527777777778, L
180906, 502.51666666666665, L
181182, 503.28333333333336, L
181468, 504.0777777777778, L
181760, 504.8888888888889, L
182042, 505.6722222222222, L
182329, 506.46944444444443, L
182605, 507.2361111111111, L
182877, 507.9916666666667, L
183139, 508.71944444444443, L
183427, 509.51944444444445, L
183717, 510.325, L
184006, 511.1277777777778, L
184290, 511.9166666666667, L
184569, 512.6916666666667, L
184841, 513.4472222222222, L
185121, 514.225, L
185391, 514.975, L
185674, 515.7611111111111, L
185964, 516.5666666666667, L
186227, 517.2972222222222, ~
186255, 517.375, L
186534, 518.15, L
186819, 518.9416666666667, L
186859, 519.0527777777778, ~
187098, 519.7166666666667, L
187372, 520.4777777777778, L
187642, 521.2277777777778, L
187937, 522.0472222222222, L
188231, 522.8638888888889, L
188519, 523.6638888888889, L
188796, 524.4333333333333, L
189073, 525.2027777777778, L
189350, 525.9722222222222, L
189623, 526.7305555555556, L
189907, 527.5194444444444, L
190201, 528.3361111111111, L
190490, 529.1388888888889, L
190777, 529.9361111111111, L
191069, 530.7472222222223, L
191350, 531.5277777777778, L
191622, 532.2833333333333, L
191895, 533.0416666666666, L
192184, 533.8444444444444, L
192485, 534.6805555555555, L
192782, 535.5055555555556, L
193066, 536.2944444444445, L
193341, 537.0583333333333, L
193626, 537.85, L
193904, 538.6222222222223, L
194188, 539.4111111111112, L
194483, 540.2305555555556, L
194779, 541.0527777777778, L
195067, 541.8527777777778, L
195359, 542.6638888888889, L
195644, 543.4555555555555, L
195922, 544.2277777777778, L
196196, 544.9888888888889, L
196494, 545.8166666666667, L
196796, 546.6555555555556, L
197093, 547.4805555555556, L
197376, 548.2666666666667, L
197659, 549.0527777777778, L
197941, 549.8361111111111, L
198220, 550.6111111111111, L
198514, 551.4277777777778, L
198816, 552.2666666666667, L
199114, 553.0944444444444, L
199414, 553.9277777777778, L
199708, 554.7444444444444, L
199991, 555.5305555555556, L
200271, 556.3083333333333, L
200553, 557.0916666666667, L
200849, 557.9138888888889, L
201157, 558.7694444444444, L
201453, 559.5916666666667, L
201743, 560.3972222222222, L
202031, 561.1972222222222, L
202323, 562.0083333333333, L
202600, 562.7777777777778, L
202894, 563.5944444444444, L
203194, 564.4277777777778, L
203492, 565.2555555555556, L
203789, 566.0805555555555, L
204081, 566.8916666666667, L
204362, 567.6722222222222, L
204642, 568.45, L
204924, 569.2333333333333, L
205229, 570.0805555555555, L
205532, 570.9222222222222, L
205823, 571.7305555555556, L
206113, 572.5361111111112, L
206400, 573.3333333333334, L
206686, 574.1277777777777, L
206967, 574.9083333333333, L
207262, 575.7277777777778, L
207556, 576.5444444444445, L
207854, 577.3722222222223, L
208151, 578.1972222222222, L
208438, 578.9944444444444, L
208716, 579.7666666666667, L
208995, 580.5416666666666, L
209276, 581.3222222222222, L
209579, 582.1638888888889, L
209885, 583.0138888888889, L
210178, 583.8277777777778, L
210464, 584.6222222222223, L
210755, 585.4305555555555, L
211042, 586.2277777777778, L
211325, 587.0138888888889, L
211620, 587.8333333333334, L
211921, 588.6694444444445, L
212218, 589.4944444444444, L
212514, 590.3166666666667, L
212803, 591.1194444444444, L
213089, 591.9138888888889, L
213362, 592.6722222222222, L
213661, 593.5027777777777, L
213968, 594.3555555555556, L
214270, 595.1944444444445, L
214562, 596.0055555555556, L
214857, 596.825, L
215143, 597.6194444444444, L
215433, 598.425, L
215720, 599.2222222222222, L
216021, 600.0583333333333, L
216323, 600.8972222222222, L
216633, 601.7583333333333, L
216927, 602.575, L
217213, 603.3694444444444, L
217501, 604.1694444444445, L
217784, 604.9555555555555, L
218091, 605.8083333333333, L
218408, 606.6888888888889, L
218710, 607.5277777777778, L
219008, 608.3555555555556, L
219305, 609.1805555555555, L
219602, 610.0055555555556, L
219889, 610.8027777777778, L
220187, 611.6305555555556, L
220495, 612.4861111111111, L
220802, 613.3388888888888, L
221104, 614.1777777777778, L
221402, 615.0055555555556, L
221697, 615.825, L
221978, 616.6055555555556, L
222285, 617.4583333333334, L
222599, 618.3305555555555, L
222909, 619.1916666666667, L
223209, 620.025, L
223510, 620.8611111111111, L
223804, 621.6777777777778, L
224102, 622.5055555555556, L
224396, 623.3222222222222, L
224705, 624.1805555555555, L
225020, 625.0555555555555, L
225331, 625.9194444444445, L
225632, 626.7555555555556, L
225926, 627.5722222222222, L
226219, 628.3861111111111, L
226513, 629.2027777777778, L
226832, 630.0888888888888, L
227146, 630.9611111111111, L
227454, 631.8166666666667, L
227753, 632.6472222222222, L
228053, 633.4805555555556, L
228350, 634.3055555555555, L
228640, 635.1111111111111, L
228947, 635.9638888888888, L
229263, 636.8416666666667, L
229570, 637.6944444444445, L
229875, 638.5416666666666, L
230174, 639.3722222222223, L
230465, 640.1805555555555, L
230757, 640.9916666666667, L
231077, 641.8805555555556, L
231393, 642.7583333333333, L
231696, 643.6, L
231999, 644.4416666666667, L
232294, 645.2611111111111, L
232597, 646.1027777777778, L
232893, 646.925, L
233204, 647.7888888888889, L
233522, 648.6722222222222, L
233844, 649.5666666666667, L
234147, 650.4083333333333, L
234445, 651.2361111111111, L
234739, 652.0527777777778, L
235028, 652.8555555555556, L
235344, 653.7333333333333, L
235661, 654.6138888888889, L
235969, 655.4694444444444, L
236269, 656.3027777777778, L
236571, 657.1416666666667, L
236872, 657.9777777777778, L
237161, 658.7805555555556, L
237464, 659.6222222222223, L
237782, 660.5055555555556, L
238094, 661.3722222222223, L
238404, 662.2333333333333, L
238706, 663.0722222222222, L
239000, 663.8888888888889, L
239291, 664.6972222222222, L
239605, 665.5694444444445, L
239921, 666.4472222222222, L
240231, 667.3083333333333, L
240537, 668.1583333333333, L
240837, 668.9916666666667, L
241144, 669.8444444444444, L
241438, 670.6611111111112, L
241747, 671.5194444444444, L
242068, 672.4111111111112, L
242392, 673.3111111111111, L
242703, 674.175, L
243005, 675.0138888888889, L
243305, 675.8472222222222, L
243601, 676.6694444444445, L
243914, 677.5388888888889, L
244237, 678.4361111111111, L
244556, 679.3222222222222, L
244859, 680.1638888888889, L
245169, 681.025, L
245475, 681.875, L
245766, 682.6833333333333, L
246076, 683.5444444444445, L
246398, 684.4388888888889, L
246720, 685.3333333333334, L
247039, 686.2194444444444, L
247343, 687.0638888888889, L
247639, 687.8861111111111, L
247941, 688.725, L
248258, 689.6055555555556, L
248580, 690.5, L
248897, 691.3805555555556, L
249208, 692.2444444444444, L
249517, 693.1027777777778, L
249828, 693.9666666666667, L
250126, 694.7944444444445, L
250443, 695.675, L
250774, 696.5944444444444, L
251100, 697.5, L
251418, 698.3833333333333, L
251721, 699.225, L
252028, 700.0777777777778, L
252329, 700.9138888888889, L
252653, 701.8138888888889, L
252981, 702.725, L
253296, 703.6, L
253610, 704.4722222222222, L
253933, 705.3694444444444, L
254241, 706.225, L
254541, 707.0583333333333, L
254870, 707.9722222222222, L
255195, 708.875, L
255519, 709.775, L
255834, 710.65, L
256139, 711.4972222222223, L
256448, 712.3555555555556, L
256762, 713.2277777777778, L
257086, 714.1277777777777, L
257409, 715.025, L
257726, 715.9055555555556, L
258041, 716.7805555555556, L
258356, 717.6555555555556, L
258661, 718.5027777777777, L
258976, 719.3777777777777, L
259302, 720.2833333333333, L
259636, 721.2111111111111, L
259954, 722.0944444444444, L
260259, 722.9416666666667, L
260567, 723.7972222222222, L
260865, 724.625, L
261184, 725.5111111111111, L
261516, 726.4333333333333, L
261841, 727.3361111111111, L
262156, 728.2111111111111, L
262479, 729.1083333333333, L
262789, 729.9694444444444, L
263089, 730.8027777777778, L
263410, 731.6944444444445, L
263738, 732.6055555555556, L
264068, 733.5222222222222, L
264390, 734.4166666666666, L
264700, 735.2777777777778, L
265009, 736.1361111111111, L
265328, 737.0222222222222, L
265654, 737.9277777777778, L
265984, 738.8444444444444, L
266304, 739.7333333333333, L
266621, 740.6138888888889, L
266938, 741.4944444444444, L
267248, 742.3555555555556, L
267558, 743.2166666666667, L
267883, 744.1194444444444, L
268219, 745.0527777777778, L
268540, 745.9444444444445, L
268849, 746.8027777777778, L
269160, 747.6666666666666, L
269464, 748.5111111111111, L
269786, 749.4055555555556, L
270124, 750.3444444444444, L
270451, 751.2527777777777, L
270773, 752.1472222222222, L
271098, 753.05, L
271411, 753.9194444444445, L
271714, 754.7611111111111, L
272038, 755.6611111111112, L
272370, 756.5833333333334, L
272705, 757.5138888888889, L
273025, 758.4027777777778, L
273343, 759.2861111111112, L
273660, 760.1666666666666, L
273985, 761.0694444444445, L
274324, 762.0111111111111, L
274656, 762.9333333333333, L
274986, 763.85, L
275313, 764.7583333333333, L
275635, 765.6527777777778, L
275948, 766.5222222222222, L
276269, 767.4138888888889, L
276611, 768.3638888888889, L
276953, 769.3138888888889, L
277278, 770.2166666666667, L
277598, 771.1055555555556, L
277916, 771.9888888888889, L
278233, 772.8694444444444, L
278577, 773.825, L
278917, 774.7694444444444, L
279248, 775.6888888888889, L
279591, 776.6416666666667, L
279913, 777.5361111111112, L
280231, 778.4194444444445, L
280557, 779.325, L
280905, 780.2916666666666, L
281255, 781.2638888888889, L
281585, 782.1805555555555, L
281915, 783.0972222222222, L
282255, 784.0416666666666, L
282581, 784.9472222222222, L
282931, 785.9194444444445, L
283283, 786.8972222222222, L
283625, 787.8472222222222, L
283970, 788.8055555555555, L
284303, 789.7305555555556, L
284633, 790.6472222222222, L
284972, 791.5888888888888, L
285340, 792.6111111111111, L
285685, 793.5694444444445, L
286022, 794.5055555555556, L
286364, 795.4555555555555, L
286694, 796.3722222222223, L
287034, 797.3166666666667, L
287388, 798.3, L
287734, 799.2611111111111, L
288082, 800.2277777777778, L
288419, 801.1638888888889, L
288750, 802.0833333333334, L
289077, 802.9916666666667, L
289429, 803.9694444444444, L
289789, 804.9694444444444, L
290134, 805.9277777777778, L
290471, 806.8638888888889, L
290804, 807.7888888888889, L
291138, 808.7166666666667, L
291489, 809.6916666666667, L
291836, 810.6555555555556, L
292183, 811.6194444444444, L
292524, 812.5666666666667, L
292868, 813.5222222222222, L
293197, 814.4361111111111, L
293534, 815.3722222222223, L
293906, 816.4055555555556, L
294258, 817.3833333333333, L
294600, 818.3333333333334, L
294939, 819.275, L
295274, 820.2055555555555, L
295615, 821.1527777777778, L
295965, 822.125, L
296319, 823.1083333333333, L
296670, 824.0833333333334, L
297011, 825.0305555555556, L
297345, 825.9583333333334, L
297675, 826.875, L
298031, 827.8638888888889, L
298390, 828.8611111111111, L
298739, 829.8305555555555, L
299080, 830.7777777777778, L
299414, 831.7055555555555, L
299753, 832.6472222222222, L
300098, 833.6055555555556, L
300451, 834.5861111111111, L
300798, 835.55, L
301143, 836.5083333333333, L
301487, 837.4638888888888, L
301817, 838.3805555555556, L
302159, 839.3305555555555, L
302526, 840.35, L
302877, 841.325, L
303215, 842.2638888888889, L
303551, 843.1972222222222, L
303891, 844.1416666666667, L
304228, 845.0777777777778, L
304581, 846.0583333333333, L
304932, 847.0333333333333, L
305285, 848.0138888888889, L
305628, 848.9666666666667, L
305961, 849.8916666666667, L
306291, 850.8083333333333, L
306643, 851.7861111111112, L
307001, 852.7805555555556, L
307349, 853.7472222222223, L
307687, 854.6861111111111, L
308026, 855.6277777777777, L
308360, 856.5555555555555, L
308703, 857.5083333333333, L
309059, 858.4972222222223, L
309408, 859.4666666666667, L
309759, 860.4416666666667, L
310101, 861.3916666666667, L
310433, 862.3138888888889, L
310770, 863.25, L
311134, 864.2611111111111, L
311490, 865.25, L
311830, 866.1944444444445, L
312168, 867.1333333333333, L
312506, 868.0722222222222, L
312843, 869.0083333333333, L
313197, 869.9916666666667, L
313549, 870.9694444444444, L
313909, 871.9694444444444, L
314253, 872.925, L
314582, 873.8388888888888, L
314915, 874.7638888888889, L
315264, 875.7333333333333, L
315625, 876.7361111111111, L
315973, 877.7027777777778, L
316313, 878.6472222222222, L
316656, 879.6, L
316986, 880.5166666666667, L
317330, 881.4722222222222, L
317688, 882.4666666666667, L
318035, 883.4305555555555, L
318390, 884.4166666666666, L
318727, 885.3527777777778, L
319058, 886.2722222222222, L
319396, 887.2111111111111, L
319755, 888.2083333333334, L
320107, 889.1861111111111, L
320445, 890.125, L
320782, 891.0611111111111, L
321121, 892.0027777777777, L
321455, 892.9305555555555, L
321808, 893.9111111111112, L
322161, 894.8916666666667, L
322517, 895.8805555555556, L
322858, 896.8277777777778, L
323185, 897.7361111111111, L
323514, 898.65, L
323861, 899.6138888888889, L
324223, 900.6194444444444, L
324570, 901.5833333333334, L
324907, 902.5194444444444, L
325258, 903.4944444444444, L
325591, 904.4194444444445, L
325929, 905.3583333333333, L
326290, 906.3611111111111, L
326643, 907.3416666666667, L
326995, 908.3194444444445, L
327331, 909.2527777777777, L
327664, 910.1777777777778, L
328006, 911.1277777777777, L
328363, 912.1194444444444, L
328716, 913.1, L
329062, 914.0611111111111, L
329404, 915.0111111111111, L
329745, 915.9583333333334, L
330079, 916.8861111111111, L
330430, 917.8611111111111, L
330783, 918.8416666666667, L
331138, 919.8277777777778, L
331473, 920.7583333333333, L
331809, 921.6916666666667, L
332134, 922.5944444444444, L
332482, 923.5611111111111, L
332847, 924.575, L
333191, 925.5305555555556, L
333538, 926.4944444444444, L
333885, 927.4583333333334, L
334218, 928.3833333333333, L
334560, 929.3333333333334, L
334915, 930.3194444444445, L
335270, 931.3055555555555, L
335618, 932.2722222222222, L
335950, 933.1944444444445, L
336285, 934.125, L
336623, 935.0638888888889, L
336982, 936.0611111111111, L
337333, 937.0361111111112, L
337676, 937.9888888888889, L
338020, 938.9444444444445, L
338360, 939.8888888888889, L
338692, 940.8111111111111, L
339039, 941.775, L
339400, 942.7777777777778, L
339753, 943.7583333333333, L
340093, 944.7027777777778, L
340428, 945.6333333333333, L
340758, 946.55, L
341112, 947.5333333333333, L
341480, 948.5555555555555, L
341828, 949.5222222222222, L
342179, 950.4972222222223, L
342525, 951.4583333333334, L
342861, 952.3916666666667, L
343199, 953.3305555555555, L
343559, 954.3305555555555, L
343919, 955.3305555555555, L
344269, 956.3027777777778, L
344613, 957.2583333333333, L
344950, 958.1944444444445, L
345300, 959.1666666666666, L
345663, 960.175, L
346019, 961.1638888888889, L
346372, 962.1444444444444, L
346717, 963.1027777777778, L
347060, 964.0555555555555, L
347398, 964.9944444444444, L
347753, 965.9805555555556, L
348121, 967.0027777777777, L
348471, 967.975, L
348813, 968.925, L
349154, 969.8722222222223, L
349487, 970.7972222222222, L
349780, 971.6111111111111, L
350145, 972.625, L
350500, 973.6111111111111, L
350861, 974.6138888888889, L
351206, 975.5722222222222, L
351540, 976.5, L
351888, 977.4666666666667, L
352249, 978.4694444444444, L
352616, 979.4888888888889, L
352963, 980.4527777777778, L
353304, 981.4, L
353645, 982.3472222222222, L
353995, 983.3194444444445, L
354356, 984.3222222222222, L
354707, 985.2972222222222, L
355053, 986.2583333333333, L
355398, 987.2166666666667, L
355739, 988.1638888888889, L
356073, 989.0916666666667, L
356436, 990.1, L
356804, 991.1222222222223, L
357152, 992.0888888888888, L
357496, 993.0444444444445, L
357834, 993.9833333333333, L
358174, 994.9277777777778, L
358538, 995.9388888888889, L
358897, 996.9361111111111, L
359249, 997.9138888888889, L
359599, 998.8861111111111, L
359942, 999.8388888888888, L
360272, 1000.7555555555556, L
360630, 1001.75, L
360997, 1002.7694444444444, L
361357, 1003.7694444444444, L
361707, 1004.7416666666667, L
362046, 1005.6833333333333, L
362393, 1006.6472222222222, L
362752, 1007.6444444444444, L
363108, 1008.6333333333333, L
363464, 1009.6222222222223, L
363813, 1010.5916666666667, L
364160, 1011.5555555555555, L
364493, 1012.4805555555556, L
364843, 1013.4527777777778, L
365218, 1014.4944444444444, L
365572, 1015.4777777777778, L
365922, 1016.45, L
366263, 1017.3972222222222, L
366600, 1018.3333333333334, L
366954, 1019.3166666666667, L
367311, 1020.3083333333333, L
367663, 1021.2861111111112, L
368018, 1022.2722222222222, L
368360, 1023.2222222222222, L
368696, 1024.1555555555556, L
369035, 1025.0972222222222, L
369395, 1026.0972222222222, L
369762, 1027.1166666666666, L
370110, 1028.0833333333333, L
370448, 1029.0222222222221, L
370791, 1029.975, L
371128, 1030.911111111111, L
371481, 1031.8916666666667, L
371838, 1032.8833333333334, L
372182, 1033.838888888889, L
372533, 1034.8138888888889, L
372874, 1035.7611111111112, L
373201, 1036.6694444444445, L
373563, 1037.675, L
373929, 1038.6916666666666, L
374278, 1039.661111111111, L
374621, 1040.6138888888888, L
374959, 1041.5527777777777, L
375294, 1042.4833333333333, L
375646, 1043.4611111111112, L
376007, 1044.463888888889, L
376361, 1045.4472222222223, L
376717, 1046.4361111111111, L
377060, 1047.388888888889, L
377394, 1048.3166666666666, L
377742, 1049.2833333333333, L
378105, 1050.2916666666667, L
378467, 1051.2972222222222, L
378818, 1052.2722222222221, L
379157, 1053.213888888889, L
379506, 1054.1833333333334, L
379845, 1055.125, L
380203, 1056.1194444444445, L
380563, 1057.1194444444445, L
380912, 1058.088888888889, L
381264, 1059.0666666666666, L
381603, 1060.0083333333334, L
381943, 1060.9527777777778, L
382312, 1061.9777777777779, L
382669, 1062.9694444444444, L
383013, 1063.925, L
383355, 1064.875, L
383713, 1065.8694444444445, L
384051, 1066.8083333333334, L
384405, 1067.7916666666667, L
384769, 1068.8027777777777, L
385123, 1069.786111111111, L
385479, 1070.775, L
385815, 1071.7083333333333, L
386151, 1072.6416666666667, L
386503, 1073.6194444444445, L
386866, 1074.6277777777777, L
387222, 1075.6166666666666, L
387563, 1076.5638888888889, L
387909, 1077.525, L
388246, 1078.4611111111112, L
388594, 1079.4277777777777, L
388959, 1080.4416666666666, L
389312, 1081.4222222222222, L
389666, 1082.4055555555556, L
390010, 1083.361111111111, L
390346, 1084.2944444444445, L
390689, 1085.2472222222223, L
391058, 1086.2722222222221, L
391417, 1087.2694444444444, L
391757, 1088.213888888889, L
392100, 1089.1666666666667, L
392442, 1090.1166666666666, L
392786, 1091.0722222222223, L
393148, 1092.0777777777778, L
393507, 1093.075, L
393870, 1094.0833333333333, L
394216, 1095.0444444444445, L
394553, 1095.9805555555556, L
394894, 1096.9277777777777, L
395254, 1097.9277777777777, L
395623, 1098.9527777777778, L
395974, 1099.9277777777777, L
396318, 1100.8833333333334, L
396673, 1101.8694444444445, L
397011, 1102.8083333333334, L
397371, 1103.8083333333334, L
397733, 1104.8138888888889, L
398090, 1105.8055555555557, L
398441, 1106.7805555555556, L
398784, 1107.7333333333333, L
399118, 1108.661111111111, L
399479, 1109.6638888888888, L
399844, 1110.6777777777777, L
400195, 1111.6527777777778, L
400539, 1112.6083333333333, L
400880, 1113.5555555555557, L
401218, 1114.4944444444445, L
401568, 1115.4666666666667, L
401929, 1116.4694444444444, L
402289, 1117.4694444444444, L
402637, 1118.4361111111111, L
402972, 1119.3666666666666, L
403307, 1120.2972222222222, L
403651, 1121.2527777777777, L
404017, 1122.2694444444444, L
404372, 1123.2555555555555, L
404715, 1124.2083333333333, L
405064, 1125.1777777777777, L
405405, 1126.125, L
405743, 1127.0638888888889, L
406099, 1128.0527777777777, L
406457, 1129.0472222222222, L
406812, 1130.0333333333333, L
407150, 1130.9722222222222, L
407486, 1131.9055555555556, L
407822, 1132.838888888889, L
408183, 1133.8416666666667, L
408542, 1134.838888888889, L
408891, 1135.8083333333334, L
409236, 1136.7666666666667, L
409579, 1137.7194444444444, L
409915, 1138.6527777777778, L
410268, 1139.6333333333334, L
410628, 1140.6333333333334, L
410988, 1141.6333333333334, L
411334, 1142.5944444444444, L
411669, 1143.525, L
412003, 1144.4527777777778, L
412359, 1145.4416666666666, L
412730, 1146.4722222222222, L
413082, 1147.45, L
413432, 1148.4222222222222, L
413783, 1149.3972222222221, L
414119, 1150.3305555555555, L
414464, 1151.2888888888888, L
414824, 1152.2888888888888, L
415184, 1153.2888888888888, L
415535, 1154.263888888889, L
415876, 1155.2111111111112, L
416214, 1156.15, L
416561, 1157.1138888888888, L
416926, 1158.1277777777777, L
417282, 1159.1166666666666, L
417630, 1160.0833333333333, L
417973, 1161.036111111111, L
418318, 1161.9944444444445, L
418653, 1162.925, L
419007, 1163.9083333333333, L
419375, 1164.9305555555557, L
419722, 1165.8944444444444, L
420064, 1166.8444444444444, L
420407, 1167.7972222222222, L
420737, 1168.713888888889, L
421105, 1169.736111111111, L
421465, 1170.736111111111, L
421811, 1171.6972222222223, L
422163, 1172.675, L
422502, 1173.6166666666666, L
422836, 1174.5444444444445, L
423183, 1175.5083333333334, L
423543, 1176.5083333333334, L
423900, 1177.5, L
424249, 1178.4694444444444, L
424587, 1179.4083333333333, L
424921, 1180.3361111111112, L
425279, 1181.3305555555555, L
425638, 1182.3277777777778, L
425987, 1183.2972222222222, L
426336, 1184.2666666666667, L
426675, 1185.2083333333333, L
427019, 1186.1638888888888, L
427358, 1187.1055555555556, L
427714, 1188.0944444444444, L
428082, 1189.1166666666666, L
428431, 1190.0861111111112, L
428773, 1191.036111111111, L
429113, 1191.9805555555556, L
429453, 1192.925, L
429821, 1193.9472222222223, L
430178, 1194.9388888888889, L
430527, 1195.9083333333333, L
430879, 1196.8861111111112, L
431224, 1197.8444444444444, L
431558, 1198.7722222222221, L
431919, 1199.775, L
432287, 1200.7972222222222, L
432646, 1201.7944444444445, L
432996, 1202.7666666666667, L
433337, 1203.713888888889, L
433684, 1204.6777777777777, L
434048, 1205.6888888888889, L
434407, 1206.6861111111111, L
434764, 1207.6777777777777, L
435113, 1208.6472222222221, L
435461, 1209.6138888888888, L
435795, 1210.5416666666667, L
436150, 1211.5277777777778, L
436523, 1212.5638888888889, L
436880, 1213.5555555555557, L
437228, 1214.5222222222221, L
437568, 1215.4666666666667, L
437903, 1216.3972222222221, L
438260, 1217.388888888889, L
438619, 1218.3861111111112, L
438975, 1219.375, L
439326, 1220.35, L
439668, 1221.3, L
440008, 1222.2444444444445, L
440349, 1223.1916666666666, L
440714, 1224.2055555555555, L
441077, 1225.213888888889, L
441426, 1226.1833333333334, L
441770, 1227.138888888889, L
442110, 1228.0833333333333, L
442457, 1229.0472222222222, L
442814, 1230.0388888888888, L
443172, 1231.0333333333333, L
443523, 1232.0083333333334, L
443872, 1232.9777777777779, L
444215, 1233.9305555555557, L
444551, 1234.8638888888888, L
444919, 1235.8861111111112, L
445283, 1236.8972222222221, L
445636, 1237.8777777777777, L
445981, 1238.8361111111112, L
446320, 1239.7777777777778, L
446665, 1240.736111111111, L
447026, 1241.7388888888888, L
447390, 1242.75, L
447745, 1243.736111111111, L
448099, 1244.7194444444444, L
448446, 1245.6833333333334, L
448781, 1246.6138888888888, L
449142, 1247.6166666666666, L
449510, 1248.638888888889, L
449867, 1249.6305555555555, L
450215, 1250.5972222222222, L
450556, 1251.5444444444445, L
450903, 1252.5083333333334, L
451257, 1253.4916666666666, L
451617, 1254.4916666666666, L
451973, 1255.4805555555556, L
452325, 1256.4583333333333, L
452674, 1257.4277777777777, L
453009, 1258.3583333333333, L
453361, 1259.3361111111112, L
453734, 1260.3722222222223, L
454091, 1261.3638888888888, L
454436, 1262.3222222222223, L
454777, 1263.2694444444444, L
455121, 1264.225, L
455466, 1265.1833333333334, L
455828, 1266.1888888888889, L
456185, 1267.1805555555557, L
456541, 1268.1694444444445, L
456888, 1269.1333333333334, L
457221, 1270.0583333333334, L
457562, 1271.0055555555555, L
457924, 1272.0111111111112, L
458285, 1273.013888888889, L
458636, 1273.9888888888888, L
458974, 1274.9277777777777, L
459318, 1275.8833333333334, L
459659, 1276.8305555555555, L
460016, 1277.8222222222223, L
460374, 1278.8166666666666, L
460728, 1279.8, L
461081, 1280.7805555555556, L
461417, 1281.713888888889, L
461751, 1282.6416666666667, L
462113, 1283.6472222222221, L
462474, 1284.65, L
462824, 1285.6222222222223, L
463164, 1286.5666666666666, L
463507, 1287.5194444444444, L
463846, 1288.4611111111112, L
464199, 1289.4416666666666, L
464563, 1290.4527777777778, L
464917, 1291.4361111111111, L
465272, 1292.4222222222222, L
465612, 1293.3666666666666, L
465944, 1294.2888888888888, L
466297, 1295.2694444444444, L
466664, 1296.2888888888888, L
467025, 1297.2916666666667, L
467374, 1298.2611111111112, L
467721, 1299.225, L
468069, 1300.1916666666666, L
468417, 1301.1583333333333, L
468782, 1302.1722222222222, L
469142, 1303.1722222222222, L
469499, 1304.1638888888888, L
469850, 1305.138888888889, L
470192, 1306.088888888889, L
470536, 1307.0444444444445, L
470909, 1308.0805555555555, L
471277, 1309.1027777777779, L
471622, 1310.0611111111111, L
471973, 1311.036111111111, L
472323, 1312.0083333333334, L
472669, 1312.9694444444444, L
473031, 1313.975, L
473396, 1314.9888888888888, L
473757, 1315.9916666666666, L
474103, 1316.9527777777778, L
474444, 1317.9, L
474783, 1318.8416666666667, L
475143, 1319.8416666666667, L
475512, 1320.8666666666666, L
475859, 1321.8305555555555, L
476206, 1322.7944444444445, L
476558, 1323.7722222222221, L
476890, 1324.6944444444443, L
477251, 1325.6972222222223, L
477609, 1326.6916666666666, L
477963, 1327.675, L
478314, 1328.65, L
478654, 1329.5944444444444, L
478986, 1330.5166666666667, L
479350, 1331.5277777777778, L
479713, 1332.536111111111, L
480064, 1333.5111111111112, L
480415, 1334.486111111111, L
480759, 1335.4416666666666, L
481097, 1336.3805555555555, L
481455, 1337.375, L
481815, 1338.375, L
482182, 1339.3944444444444, L
482536, 1340.3777777777777, L
482874, 1341.3166666666666, L
483212, 1342.2555555555555, L
483568, 1343.2444444444445, L
483942, 1344.2833333333333, L
484302, 1345.2833333333333, L
484652, 1346.2555555555555, L
485009, 1347.2472222222223, L
485350, 1348.1944444444443, L
485698, 1349.161111111111, L
486064, 1350.1777777777777, L
486427, 1351.1861111111111, L
486785, 1352.1805555555557, L
487130, 1353.138888888889, L
487473, 1354.0916666666667, L
487828, 1355.0777777777778, L
488199, 1356.1083333333333, L
488559, 1357.1083333333333, L
488914, 1358.0944444444444, L
489266, 1359.0722222222223, L
489612, 1360.0333333333333, L
489958, 1360.9944444444445, L
490320, 1362.0, L
490692, 1363.0333333333333, L
491048, 1364.0222222222221, L
491391, 1364.975, L
491734, 1365.9277777777777, L
492079, 1366.8861111111112, L
492453, 1367.925, L
492811, 1368.9194444444445, L
493161, 1369.8916666666667, L
493515, 1370.875, L
493852, 1371.8111111111111, L
494189, 1372.7472222222223, L
494549, 1373.7472222222223, L
494908, 1374.7444444444445, L
495267, 1375.7416666666666, L
495610, 1376.6944444444443, L
495951, 1377.6416666666667, L
496293, 1378.5916666666667, L
496654, 1379.5944444444444, L
497016, 1380.6, L
497371, 1381.5861111111112, L
497716, 1382.5444444444445, L
498064, 1383.5111111111112, L
498400, 1384.4444444444443, L
498750, 1385.4166666666667, L
499122, 1386.45, L
499481, 1387.4472222222223, L
499830, 1388.4166666666667, L
500175, 1389.375, L
500510, 1390.3055555555557, L
500875, 1391.3194444444443, L
501243, 1392.3416666666667, L
501596, 1393.3222222222223, L
501953, 1394.3138888888889, L
502303, 1395.286111111111, L
502639, 1396.2194444444444, L
502987, 1397.1861111111111, L
503354, 1398.2055555555555, L
503717, 1399.213888888889, L
504070, 1400.1944444444443, L
504418, 1401.161111111111, L
504761, 1402.1138888888888, L
505115, 1403.0972222222222, L
505481, 1404.1138888888888, L
505842, 1405.1166666666666, L
506198, 1406.1055555555556, L
506551, 1407.0861111111112, L
506899, 1408.0527777777777, L
507245, 1409.013888888889, L
507622, 1410.0611111111111, L
507994, 1411.0944444444444, L
508350, 1412.0833333333333, L
508703, 1413.0638888888889, L
509045, 1414.013888888889, L
509401, 1415.0027777777777, L
509774, 1416.0388888888888, L
510136, 1417.0444444444445, L
510495, 1418.0416666666667, L
510853, 1419.036111111111, L
511197, 1419.9916666666666, L
511538, 1420.9388888888889, L
511907, 1421.963888888889, L
512274, 1422.9833333333333, L
512628, 1423.9666666666667, L
512976, 1424.9333333333334, L
513318, 1425.8833333333334, L
513668, 1426.8555555555556, L
514030, 1427.861111111111, L
514389, 1428.8583333333333, L
514742, 1429.838888888889, L
515093, 1430.8138888888889, L
515437, 1431.7694444444444, L
515777, 1432.713888888889, L
516145, 1433.736111111111, L
516513, 1434.7583333333334, L
516866, 1435.7388888888888, L
517213, 1436.7027777777778, L
517554, 1437.65, L
517900, 1438.611111111111, L
518259, 1439.6083333333333, L
518626, 1440.6277777777777, L
518983, 1441.6194444444445, L
519336, 1442.6, L
519681, 1443.5583333333334, L
520018, 1444.4944444444445, L
520379, 1445.4972222222223, L
520749, 1446.525, L
521108, 1447.5222222222221, L
521457, 1448.4916666666666, L
521801, 1449.4472222222223, L
522146, 1450.4055555555556, L
522501, 1451.3916666666667, L
522868, 1452.411111111111, L
523226, 1453.4055555555556, L
523584, 1454.4, L
523932, 1455.3666666666666, L
524268, 1456.3, L
524633, 1457.3138888888889, L
525003, 1458.3416666666667, L
525358, 1459.3277777777778, L
525714, 1460.3166666666666, L
526057, 1461.2694444444444, L
526402, 1462.2277777777779, L
526760, 1463.2222222222222, L
527127, 1464.2416666666666, L
527491, 1465.2527777777777, L
527852, 1466.2555555555555, L
528198, 1467.2166666666667, L
528536, 1468.1555555555556, L
528896, 1469.1555555555556, L
529266, 1470.1833333333334, L
529627, 1471.1861111111111, L
529979, 1472.1638888888888, L
530320, 1473.111111111111, L
530668, 1474.0777777777778, L
531012, 1475.0333333333333, L
531372, 1476.0333333333333, L
531737, 1477.0472222222222, L
532092, 1478.0333333333333, L
532439, 1478.9972222222223, L
532780, 1479.9444444444443, L
533126, 1480.9055555555556, L
533494, 1481.9277777777777, L
533858, 1482.9388888888889, L
534207, 1483.9083333333333, L
534553, 1484.8694444444445, L
534903, 1485.8416666666667, L
535246, 1486.7944444444445, L
535612, 1487.8111111111111, L
535981, 1488.8361111111112, L
536339, 1489.8305555555555, L
536690, 1490.8055555555557, L
537031, 1491.7527777777777, L
537370, 1492.6944444444443, L
537738, 1493.7166666666667, L
538106, 1494.7388888888888, L
538461, 1495.725, L
538809, 1496.6916666666666, L
539164, 1497.6777777777777, L
539502, 1498.6166666666666, L
539865, 1499.625, L
540233, 1500.6472222222221, L
540592, 1501.6444444444444, L
540949, 1502.6361111111112, L
541291, 1503.5861111111112, L
541632, 1504.5333333333333, L
541999, 1505.5527777777777, L
542368, 1506.5777777777778, L
542720, 1507.5555555555557, L
543072, 1508.5333333333333, L
543427, 1509.5194444444444, L
543768, 1510.4666666666667, L
544132, 1511.4777777777779, L
544501, 1512.5027777777777, L
544865, 1513.513888888889, L
545219, 1514.4972222222223, L
545564, 1515.4555555555555, L
545907, 1516.4083333333333, L
546267, 1517.4083333333333, L
546647, 1518.463888888889, L
547005, 1519.4583333333333, L
547359, 1520.4416666666666, L
547723, 1521.4527777777778, L
548065, 1522.4027777777778, L
548425, 1523.4027777777778, L
548804, 1524.4555555555555, L
549164, 1525.4555555555555, L
549521, 1526.4472222222223, L
549866, 1527.4055555555556, L
550213, 1528.3694444444445, L
550545, 1529.2916666666667, L
550935, 1530.375, L
551291, 1531.3638888888888, L
551673, 1532.425, L
551800, 1532.7777777777778, +
551928, 1533.1333333333334, V
552394, 1534.4277777777777, L
552446, 1534.5722222222223, |
552516, 1534.7666666666667, |
552615, 1535.0416666666667, V
553125, 1536.4583333333333, L
553386, 1537.1833333333334, V
553873, 1538.536111111111, L
554109, 1539.1916666666666, V
554577, 1540.4916666666666, L
554682, 1540.7833333333333, [
554740, 1540.9444444444443, +
554826, 1541.1833333333334, !
554969, 1541.5805555555555, !
555102, 1541.95, !
555226, 1542.2944444444445, !
555339, 1542.6083333333333, !
555460, 1542.9444444444443, !
555573, 1543.2583333333334, !
555708, 1543.6333333333334, !
555804, 1543.9, !
555948, 1544.3, !
556047, 1544.575, !
556163, 1544.8972222222221, !
556247, 1545.1305555555555, !
556361, 1545.4472222222223, !
556482, 1545.7833333333333, !
556597, 1546.1027777777779, !
556703, 1546.3972222222221, !
556824, 1546.7333333333333, !
556937, 1547.0472222222222, !
557025, 1547.2916666666667, !
557158, 1547.661111111111, !
557287, 1548.0194444444444, !
557400, 1548.3333333333333, !
557519, 1548.6638888888888, !
557627, 1548.963888888889, !
557749, 1549.3027777777777, !
557863, 1549.6194444444445, !
557983, 1549.9527777777778, !
558097, 1550.2694444444444, !
558205, 1550.5694444444443, !
558309, 1550.8583333333333, !
558411, 1551.1416666666667, !
558522, 1551.45, !
558622, 1551.7277777777779, !
558720, 1552.0, !
558824, 1552.2888888888888, !
558942, 1552.6166666666666, !
559057, 1552.9361111111111, !
559156, 1553.2111111111112, !
559266, 1553.5166666666667, !
559393, 1553.8694444444445, !
559484, 1554.1222222222223, !
559579, 1554.3861111111112, !
559690, 1554.6944444444443, !
559809, 1555.025, !
559905, 1555.2916666666667, !
560006, 1555.5722222222223, !
560124, 1555.9, !
560240, 1556.2222222222222, !
560330, 1556.4722222222222, !
560440, 1556.7777777777778, !
560554, 1557.0944444444444, !
560659, 1557.3861111111112, !
560767, 1557.6861111111111, !
560862, 1557.95, !
560945, 1558.1805555555557, !
561073, 1558.536111111111, !
561176, 1558.8222222222223, !
561251, 1559.0305555555556, !
561386, 1559.4055555555556, !
561505, 1559.736111111111, !
561618, 1560.05, !
561733, 1560.3694444444445, !
561833, 1560.6472222222221, !
561951, 1560.975, !
562059, 1561.275, !
562155, 1561.5416666666667, !
562263, 1561.8416666666667, !
562362, 1562.1166666666666, !
562470, 1562.4166666666667, !
562568, 1562.6888888888889, !
562670, 1562.9722222222222, !
562780, 1563.2777777777778, !
562871, 1563.5305555555556, !
562968, 1563.8, !
563062, 1564.0611111111111, !
563160, 1564.3333333333333, !
563269, 1564.6361111111112, !
563370, 1564.9166666666667, !
563482, 1565.2277777777779, !
563589, 1565.525, !
563688, 1565.8, !
563800, 1566.111111111111, !
563899, 1566.3861111111112, !
564013, 1566.7027777777778, !
564111, 1566.975, !
564201, 1567.225, !
564299, 1567.4972222222223, !
564410, 1567.8055555555557, !
564499, 1568.0527777777777, !
564611, 1568.3638888888888, !
564716, 1568.6555555555556, !
564810, 1568.9166666666667, !
564915, 1569.2083333333333, !
565004, 1569.4555555555555, !
565111, 1569.7527777777777, !
565200, 1570.0, !
565291, 1570.2527777777777, !
565382, 1570.5055555555555, !
565482, 1570.7833333333333, !
565588, 1571.0777777777778, !
565692, 1571.3666666666666, !
565792, 1571.6444444444444, !
565898, 1571.9388888888889, !
565999, 1572.2194444444444, !
566107, 1572.5194444444444, !
566208, 1572.8, !
566305, 1573.0694444444443, !
566407, 1573.3527777777779, !
566512, 1573.6444444444444, !
566611, 1573.9194444444445, !
566709, 1574.1916666666666, !
566805, 1574.4583333333333, !
566899, 1574.7194444444444, !
566998, 1574.9944444444445, !
567093, 1575.2583333333334, !
567193, 1575.536111111111, !
567289, 1575.8027777777777, !
567384, 1576.0666666666666, !
567479, 1576.3305555555555, !
567581, 1576.6138888888888, !
567680, 1576.888888888889, !
567773, 1577.1472222222221, !
567871, 1577.4194444444445, !
567969, 1577.6916666666666, !
568076, 1577.9888888888888, !
568174, 1578.2611111111112, !
568275, 1578.5416666666667, !
568377, 1578.825, !
568466, 1579.0722222222223, !
568566, 1579.35, !
568668, 1579.6333333333334, !
568767, 1579.9083333333333, !
568872, 1580.2, !
568967, 1580.463888888889, !
569058, 1580.7166666666667, !
569160, 1581.0, !
569250, 1581.25, !
569340, 1581.5, !
569436, 1581.7666666666667, !
569536, 1582.0444444444445, !
569620, 1582.2777777777778, !
569708, 1582.5222222222221, !
569811, 1582.8083333333334, !
569912, 1583.088888888889, !
570017, 1583.3805555555555, !
570106, 1583.6277777777777, !
570161, 1583.7805555555556, !
570213, 1583.925, !
570287, 1584.1305555555555, !
570346, 1584.2944444444445, !
570441, 1584.5583333333334, !
570513, 1584.7583333333334, !
570619, 1585.0527777777777, !
570715, 1585.3194444444443, !
570803, 1585.5638888888889, !
570899, 1585.8305555555555, !
570985, 1586.0694444444443, !
571088, 1586.3555555555556, !
571181, 1586.6138888888888, !
571278, 1586.8833333333334, !
571372, 1587.1444444444444, !
571467, 1587.4083333333333, !
571555, 1587.6527777777778, !
571654, 1587.9277777777777, !
571788, 1588.3, !
571881, 1588.5583333333334, !
571992, 1588.8666666666666, !
572133, 1589.2583333333334, !
572287, 1589.6861111111111, !
572345, 1589.8472222222222, !
572447, 1590.1305555555555, !
572536, 1590.3777777777777, !
572629, 1590.6361111111112, !
572726, 1590.9055555555556, !
572820, 1591.1666666666667, !
572924, 1591.4555555555555, !
573033, 1591.7583333333334, !
573130, 1592.0277777777778, !
573222, 1592.2833333333333, !
573316, 1592.5444444444445, !
573399, 1592.775, !
573485, 1593.013888888889, !
573599, 1593.3305555555555, !
573732, 1593.7, !
573796, 1593.8777777777777, !
573893, 1594.1472222222221, !
573990, 1594.4166666666667, !
574093, 1594.7027777777778, !
574193, 1594.9805555555556, !
574272, 1595.2, !
574381, 1595.5027777777777, !
574485, 1595.7916666666667, !
574558, 1595.9944444444445, !
574662, 1596.2833333333333, !
574764, 1596.5666666666666, !
574862, 1596.838888888889, !
574962, 1597.1166666666666, !
575058, 1597.3833333333334, !
575163, 1597.675, !
575263, 1597.9527777777778, !
575351, 1598.1972222222223, !
575446, 1598.4611111111112, !
575498, 1598.6055555555556, !
575599, 1598.8861111111112, !
575708, 1599.1888888888889, !
575830, 1599.5277777777778, !
575978, 1599.9388888888889, !
576090, 1600.25, !
576204, 1600.5666666666666, !
576309, 1600.8583333333333, !
576405, 1601.125, !
576499, 1601.3861111111112, !
576647, 1601.7972222222222, !
576780, 1602.1666666666667, !
576913, 1602.536111111111, !
577027, 1602.8527777777779, !
577130, 1603.138888888889, !
577211, 1603.3638888888888, !
577319, 1603.6638888888888, !
577415, 1603.9305555555557, !
577522, 1604.2277777777779, !
577583, 1604.3972222222221, !
577718, 1604.7722222222221, !
577804, 1605.0111111111112, !
577911, 1605.3083333333334, !
577998, 1605.55, !
578095, 1605.8194444444443, !
578179, 1606.0527777777777, !
578271, 1606.3083333333334, !
578377, 1606.6027777777779, !
578441, 1606.7805555555556, !
578575, 1607.1527777777778, !
578660, 1607.388888888889, !
578846, 1607.9055555555556, !
578951, 1608.1972222222223, !
579050, 1608.4722222222222, !
579155, 1608.763888888889, !
579255, 1609.0416666666667, !
579347, 1609.2972222222222, !
579437, 1609.5472222222222, !
579544, 1609.8444444444444, !
579634, 1610.0944444444444, !
579730, 1610.361111111111, !
579829, 1610.6361111111112, !
579911, 1610.8638888888888, !
580020, 1611.1666666666667, !
580133, 1611.4805555555556, !
580230, 1611.75, !
580341, 1612.0583333333334, !
580425, 1612.2916666666667, !
580533, 1612.5916666666667, !
580638, 1612.8833333333334, !
580717, 1613.1027777777779, !
580820, 1613.388888888889, !
580873, 1613.536111111111, !
580990, 1613.861111111111, !
581064, 1614.0666666666666, !
581171, 1614.3638888888888, !
581260, 1614.611111111111, !
581359, 1614.8861111111112, !
581468, 1615.1888888888889, !
581553, 1615.425, !
581656, 1615.7111111111112, !
581756, 1615.9888888888888, !
581854, 1616.2611111111112, !
581961, 1616.5583333333334, !
582077, 1616.8805555555555, !
582168, 1617.1333333333334, !
582261, 1617.3916666666667, !
582345, 1617.625, !
582442, 1617.8944444444444, !
582538, 1618.161111111111, !
582633, 1618.425, !
582736, 1618.7111111111112, !
582822, 1618.95, !
582916, 1619.2111111111112, !
583004, 1619.4555555555555, !
583110, 1619.75, !
583213, 1620.036111111111, !
583296, 1620.2666666666667, !
583397, 1620.5472222222222, !
583499, 1620.8305555555555, !
583589, 1621.0805555555555, !
583689, 1621.3583333333333, !
583792, 1621.6444444444444, !
583865, 1621.8472222222222, !
583976, 1622.1555555555556, !
584088, 1622.4666666666667, !
584192, 1622.7555555555555, !
584277, 1622.9916666666666, !
584383, 1623.286111111111, !
584476, 1623.5444444444445, !
584575, 1623.8194444444443, !
584642, 1624.0055555555555, !
584728, 1624.2444444444445, !
584842, 1624.5611111111111, !
584941, 1624.8361111111112, !
585054, 1625.15, !
585152, 1625.4222222222222, !
585235, 1625.6527777777778, !
585323, 1625.8972222222221, !
585455, 1626.263888888889, !
585539, 1626.4972222222223, !
585636, 1626.7666666666667, !
585731, 1627.0305555555556, !
585853, 1627.3694444444445, !
586020, 1627.8333333333333, !
586126, 1628.1277777777777, !
586225, 1628.4027777777778, !
586335, 1628.7083333333333, !
586422, 1628.95, !
586521, 1629.225, !
586629, 1629.525, !
586731, 1629.8083333333334, !
586820, 1630.0555555555557, !
586938, 1630.3833333333334, !
587071, 1630.7527777777777, !
587220, 1631.1666666666667, !
587391, 1631.6416666666667, !
587471, 1631.8638888888888, !
587581, 1632.1694444444445, !
587692, 1632.4777777777779, !
587784, 1632.7333333333333, !
587875, 1632.986111111111, !
587986, 1633.2944444444445, !
588092, 1633.588888888889, !
588188, 1633.8555555555556, !
588302, 1634.1722222222222, !
588402, 1634.45, !
588508, 1634.7444444444445, !
588615, 1635.0416666666667, !
588757, 1635.4361111111111, !
588905, 1635.8472222222222, !
589047, 1636.2416666666666, !
589166, 1636.5722222222223, !
589276, 1636.8777777777777, !
589410, 1637.25, !
589537, 1637.6027777777779, !
589660, 1637.9444444444443, !
589926, 1638.6833333333334, ]
590149, 1639.3027777777777, +
590585, 1640.513888888889, E
591405, 1642.7916666666667, E
592308, 1645.3, E
592841, 1646.7805555555556, E
593283, 1648.0083333333334, E
593701, 1649.1694444444445, E
594137, 1650.3805555555555, E
594555, 1651.5416666666667, E
594963, 1652.675, E
595360, 1653.7777777777778, E
595770, 1654.9166666666667, E
596200, 1656.111111111111, E
596605, 1657.236111111111, E
597011, 1658.3638888888888, E
597406, 1659.4611111111112, E
597800, 1660.5555555555557, E
598212, 1661.7, E
598640, 1662.888888888889, E
599051, 1664.0305555555556, E
599451, 1665.1416666666667, E
599835, 1666.2083333333333, E
600244, 1667.3444444444444, E
600663, 1668.5083333333334, E
601063, 1669.6194444444445, E
601453, 1670.7027777777778, E
601835, 1671.763888888889, E
602204, 1672.7888888888888, E
602592, 1673.8666666666666, E
602977, 1674.9361111111111, E
603352, 1675.9777777777779, E
603708, 1676.9666666666667, E
604047, 1677.9083333333333, E
604401, 1678.8916666666667, E
604760, 1679.888888888889, E
605110, 1680.861111111111, E
605456, 1681.8222222222223, E
605790, 1682.75, E
606126, 1683.6833333333334, E
606449, 1684.5805555555555, E
606789, 1685.525, E
607137, 1686.4916666666666, E
607465, 1687.4027777777778, E
607785, 1688.2916666666667, E
608095, 1689.1527777777778, E
608400, 1690.0, E
608717, 1690.8805555555555, E
609047, 1691.7972222222222, E
609371, 1692.6972222222223, E
609682, 1693.5611111111111, E
609996, 1694.4333333333334, E
610307, 1695.2972222222222, E
610603, 1696.1194444444445, E
610908, 1696.9666666666667, E
611230, 1697.861111111111, E
611550, 1698.75, E
611866, 1699.6277777777777, E
612171, 1700.475, E
612469, 1701.3027777777777, E
613016, 1702.8222222222223, E
613426, 1703.9611111111112, E
613750, 1704.861111111111, E
614293, 1706.3694444444445, E
614714, 1707.5388888888888, E
615030, 1708.4166666666667, E
615368, 1709.3555555555556, E
615728, 1710.3555555555556, E
616069, 1711.3027777777777, E
616409, 1712.2472222222223, E
616741, 1713.1694444444445, E
617069, 1714.0805555555555, E
617428, 1715.0777777777778, E
617769, 1716.025, E
618118, 1716.9944444444445, E
618467, 1717.963888888889, E
618824, 1718.9555555555555, E
619175, 1719.9305555555557, E
619539, 1720.9416666666666, E
619912, 1721.9777777777779, E
620293, 1723.036111111111, E
620667, 1724.075, E
621021, 1725.0583333333334, E
621387, 1726.075, E
621758, 1727.1055555555556, E
622146, 1728.1833333333334, E
622519, 1729.2194444444444, E
622885, 1730.236111111111, E
623253, 1731.2583333333334, E
623591, 1732.1972222222223, E
623951, 1733.1972222222223, E
624338, 1734.2722222222221, E
624696, 1735.2666666666667, E
625049, 1736.2472222222223, E
625386, 1737.1833333333334, E
625717, 1738.1027777777779, E
626070, 1739.0833333333333, E
626416, 1740.0444444444445, E
626752, 1740.9777777777779, E
627090, 1741.9166666666667, E
627418, 1742.8277777777778, E
627735, 1743.7083333333333, E
628039, 1744.5527777777777, E
628368, 1745.4666666666667, E
628703, 1746.3972222222221, E
629034, 1747.3166666666666, E
629348, 1748.1888888888889, E
629482, 1748.5611111111111, +
629617, 1748.9361111111111, L
629933, 1749.8138888888889, L
630158, 1750.4388888888889, A
630472, 1751.3111111111111, L
630705, 1751.9583333333333, A
630910, 1752.5277777777778, A
631192, 1753.3111111111111, L
631361, 1753.7805555555556, +
631420, 1753.9444444444443, A
631608, 1754.4666666666667, A
631790, 1754.9722222222222, A
631959, 1755.4416666666666, A
632128, 1755.911111111111, A
632289, 1756.3583333333333, A
632461, 1756.8361111111112, A
632637, 1757.325, A
632819, 1757.8305555555555, A
632996, 1758.3222222222223, A
633171, 1758.8083333333334, A
633347, 1759.2972222222222, A
633519, 1759.775, A
633690, 1760.25, A
633860, 1760.7222222222222, A
634030, 1761.1944444444443, A
634202, 1761.6722222222222, A
634374, 1762.15, A
634558, 1762.661111111111, A
634741, 1763.1694444444445, A
634927, 1763.6861111111111, A
635112, 1764.2, A
635293, 1764.7027777777778, A
635476, 1765.2111111111112, A
635664, 1765.7333333333333, A
635846, 1766.2388888888888, A
636021, 1766.725, A
636191, 1767.1972222222223, A
636360, 1767.6666666666667, A
636526, 1768.1277777777777, A
636708, 1768.6333333333334, A
636895, 1769.1527777777778, A
637084, 1769.6777777777777, A
637265, 1770.1805555555557, A
637451, 1770.6972222222223, A
637628, 1771.1888888888889, A
637810, 1771.6944444444443, A
637990, 1772.1944444444443, A
638163, 1772.675, A
638339, 1773.1638888888888, A
638512, 1773.6444444444444, A
638674, 1774.0944444444444, A
638849, 1774.5805555555555, A
639032, 1775.088888888889, A
639227, 1775.6305555555555, A
639413, 1776.1472222222221, A
639590, 1776.638888888889, A
639762, 1777.1166666666666, A
639946, 1777.6277777777777, A
640120, 1778.111111111111, A
640309, 1778.6361111111112, A
640475, 1779.0972222222222, A
640647, 1779.575, A
640813, 1780.036111111111, A
640986, 1780.5166666666667, A
641166, 1781.0166666666667, A
641364, 1781.5666666666666, A
641546, 1782.0722222222223, A
641728, 1782.5777777777778, A
641906, 1783.0722222222223, A
642086, 1783.5722222222223, A
642255, 1784.0416666666667, A
642432, 1784.5333333333333, A
642606, 1785.0166666666667, A
642785, 1785.513888888889, A
642960, 1786.0, A
643134, 1786.4833333333333, A
643307, 1786.963888888889, A
643495, 1787.486111111111, A
643677, 1787.9916666666666, A
643860, 1788.5, A
644042, 1789.0055555555555, A
644224, 1789.5111111111112, A
644402, 1790.0055555555555, A
644580, 1790.5, A
644748, 1790.9666666666667, A
644923, 1791.4527777777778, A
645093, 1791.925, A
645273, 1792.425, A
645445, 1792.9027777777778, A
645632, 1793.4222222222222, A
645817, 1793.9361111111111, A
646010, 1794.4722222222222, A
646192, 1794.9777777777779, A
646376, 1795.4888888888888, A
646543, 1795.9527777777778, A
646724, 1796.4555555555555, A
646906, 1796.9611111111112, A
647092, 1797.4777777777779, A
647256, 1797.9333333333334, A
647433, 1798.425, A
647616, 1798.9333333333334, A
647807, 1799.463888888889, A
647989, 1799.9694444444444, A
648166, 1800.4611111111112, A
648356, 1800.9888888888888, A
648546, 1801.5166666666667, A
648729, 1802.025, A
648899, 1802.4972222222223, A
649081, 1803.0027777777777, A
649262, 1803.5055555555555, A
649431, 1803.975, A
649602, 1804.45, A
649799, 1804.9972222222223, A
