9, 0.025, +
46, 0.12777777777777777, F
209, 0.5805555555555556, V
483, 1.3416666666666666, N
697, 1.9361111111111111, F
853, 2.3694444444444445, V
1181, 3.2805555555555554, N
1378, 3.827777777777778, V
1579, 4.386111111111111, V
1860, 5.166666666666667, N
2058, 5.716666666666667, V
2242, 6.227777777777778, V
2558, 7.105555555555555, N
2747, 7.6305555555555555, V
2930, 8.13888888888889, V
3201, 8.891666666666667, N
3411, 9.475, V
3606, 10.016666666666667, V
3886, 10.794444444444444, N
4097, 11.380555555555556, F
4262, 11.838888888888889, V
4565, 12.680555555555555, N
4766, 13.238888888888889, F
4944, 13.733333333333333, V
5196, 14.433333333333334, N
5414, 15.03888888888889, F
5568, 15.466666666666667, V
5899, 16.386111111111113, N
6105, 16.958333333333332, V
6304, 17.511111111111113, V
6482, 18.005555555555556, ~
6579, 18.275, N
6776, 18.822222222222223, F
6941, 19.280555555555555, V
7169, 19.913888888888888, N
7349, 20.413888888888888, N
7547, 20.96388888888889, F
7750, 21.52777777777778, N
7951, 22.086111111111112, N
8093, 22.480555555555554, ~
8147, 22.630555555555556, N
8317, 23.102777777777778, V
8532, 23.7, N
8727, 24.241666666666667, N
8922, 24.783333333333335, N
9087, 25.241666666666667, V
9294, 25.816666666666666, N
9472, 26.31111111111111, N
9649, 26.802777777777777, N
9824, 27.288888888888888, V
10035, 27.875, N
10233, 28.425, N
10423, 28.95277777777778, N
10595, 29.430555555555557, V
10791, 29.975, N
10973, 30.480555555555554, N
11155, 30.98611111111111, N
11324, 31.455555555555556, V
11526, 32.016666666666666, N
11697, 32.49166666666667, N
11888, 33.022222222222226, N
12055, 33.486111111111114, V
12273, 34.09166666666667, N
12471, 34.641666666666666, N
12680, 35.22222222222222, N
12894, 35.81666666666667, N
13030, 36.19444444444444, ~
13099, 36.38611111111111, N
13292, 36.922222222222224, F
13486, 37.46111111111111, N
13673, 37.980555555555554, N
13850, 38.47222222222222, N
14046, 39.016666666666666, N
14251, 39.58611111111111, N
14449, 40.13611111111111, N
14619, 40.608333333333334, V
14845, 41.236111111111114, N
15036, 41.766666666666666, N
15218, 42.272222222222226, V
15431, 42.86388888888889, N
15628, 43.41111111111111, N
15831, 43.975, F
16033, 44.53611111111111, N
16241, 45.11388888888889, N
16422, 45.61666666666667, V
16677, 46.325, N
16899, 46.94166666666667, N
17088, 47.46666666666667, V
17312, 48.08888888888889, N
17515, 48.65277777777778, N
17715, 49.208333333333336, F
17916, 49.766666666666666, N
18110, 50.30555555555556, N
18306, 50.85, N
18519, 51.44166666666667, N
18727, 52.019444444444446, N
18930, 52.583333333333336, N
19092, 53.03333333333333, V
19333, 53.702777777777776, N
19538, 54.272222222222226, N
19725, 54.791666666666664, V
19850, 55.138888888888886, ~
19919, 55.330555555555556, N
20105, 55.84722222222222, N
20291, 56.36388888888889, F
20453, 56.81388888888889, V
20721, 57.55833333333333, N
20932, 58.144444444444446, F
21104, 58.62222222222222, V
21359, 59.330555555555556, N
21560, 59.888888888888886, N
21728, 60.355555555555554, V
21948, 60.96666666666667, N
22148, 61.522222222222226, N
22339, 62.05277777777778, F
22415, 62.263888888888886, +
22492, 62.477777777777774, V
22738, 63.16111111111111, N
22944, 63.733333333333334, N
23128, 64.24444444444444, V
23383, 64.95277777777778, N
23590, 65.52777777777777, N
23786, 66.07222222222222, V
24002, 66.67222222222222, N
24205, 67.23611111111111, N
24395, 67.76388888888889, V
24563, 68.23055555555555, V
24855, 69.04166666666667, N
25060, 69.61111111111111, F
25231, 70.08611111111111, V
25513, 70.86944444444444, N
25716, 71.43333333333334, F
25874, 71.87222222222222, V
26121, 72.55833333333334, N
26321, 73.1138888888889, N
26502, 73.61666666666666, V
26723, 74.23055555555555, N
26916, 74.76666666666667, N
27118, 75.32777777777778, V
27257, 75.71388888888889, +
27397, 76.10277777777777, N
27632, 76.75555555555556, N
27844, 77.34444444444445, V
28013, 77.81388888888888, V
28314, 78.65, N
28505, 79.18055555555556, V
28670, 79.63888888888889, V
28963, 80.45277777777778, N
29170, 81.02777777777777, F
29344, 81.5111111111111, V
29578, 82.16111111111111, N
29780, 82.72222222222223, N
29984, 83.28888888888889, N
30190, 83.86111111111111, N
30399, 84.44166666666666, N
30598, 84.99444444444444, V
30761, 85.44722222222222, V
31063, 86.28611111111111, N
31248, 86.8, V
31439, 87.33055555555555, V
31702, 88.06111111111112, N
31913, 88.64722222222223, F
32076, 89.1, V
32317, 89.76944444444445, N
32516, 90.32222222222222, N
32719, 90.8861111111111, F
32926, 91.46111111111111, N
33130, 92.02777777777777, N
33317, 92.54722222222222, N
33522, 93.11666666666666, N
33737, 93.71388888888889, N
33956, 94.32222222222222, F
34123, 94.78611111111111, V
34405, 95.56944444444444, N
34611, 96.14166666666667, F
34691, 96.3638888888889, +
34772, 96.58888888888889, V
35021, 97.28055555555555, N
35223, 97.84166666666667, N
35384, 98.28888888888889, V
35632, 98.97777777777777, N
35841, 99.55833333333334, N
36024, 100.06666666666666, V
36135, 100.375, +
36247, 100.68611111111112, N
36451, 101.25277777777778, N
36649, 101.80277777777778, F
36815, 102.26388888888889, V
37044, 102.9, N
37239, 103.44166666666666, N
37430, 103.97222222222223, N
37611, 104.475, N
37810, 105.02777777777777, N
38036, 105.65555555555555, F
38204, 106.12222222222222, V
38534, 107.03888888888889, N
38720, 107.55555555555556, V
38892, 108.03333333333333, V
39186, 108.85, N
39381, 109.39166666666667, F
39550, 109.86111111111111, V
39790, 110.52777777777777, N
40007, 111.13055555555556, N
40183, 111.61944444444444, V
40510, 112.52777777777777, N
40719, 113.10833333333333, V
40899, 113.60833333333333, V
41235, 114.54166666666667, N
41416, 115.04444444444445, V
41593, 115.53611111111111, V
41904, 116.4, N
42090, 116.91666666666667, V
42282, 117.45, V
42569, 118.24722222222222, N
42781, 118.83611111111111, F
42940, 119.27777777777777, V
43245, 120.125, N
43441, 120.66944444444445, V
43620, 121.16666666666667, V
43908, 121.96666666666667, N
44094, 122.48333333333333, F
44260, 122.94444444444444, V
44538, 123.71666666666667, N
44751, 124.30833333333334, F
44920, 124.77777777777777, V
45226, 125.62777777777778, N
45428, 126.18888888888888, F
45598, 126.66111111111111, V
45855, 127.375, N
46061, 127.94722222222222, F
46211, 128.36388888888888, V
46490, 129.13888888888889, N
46698, 129.71666666666667, F
46866, 130.18333333333334, V
47147, 130.9638888888889, N
47346, 131.51666666666668, F
47428, 131.74444444444444, +
47510, 131.97222222222223, V
47769, 132.69166666666666, N
47971, 133.25277777777777, N
48130, 133.69444444444446, V
48373, 134.36944444444444, N
48577, 134.9361111111111, N
48752, 135.42222222222222, V
49020, 136.16666666666666, N
49239, 136.775, N
49412, 137.25555555555556, V
49655, 137.93055555555554, N
49864, 138.51111111111112, N
49955, 138.76388888888889, +
50046, 139.01666666666668, V
50322, 139.78333333333333, N
50517, 140.325, V
50676, 140.76666666666668, V
51007, 141.6861111111111, N
51204, 142.23333333333332, V
51391, 142.75277777777777, V
51708, 143.63333333333333, N
51902, 144.17222222222222, V
52083, 144.675, V
52331, 145.36388888888888, N
52541, 145.94722222222222, F
52681, 146.3361111111111, V
52977, 147.15833333333333, N
53191, 147.75277777777777, F
53281, 148.00277777777777, +
53372, 148.25555555555556, V
53636, 148.98888888888888, N
53835, 149.54166666666666, N
54002, 150.00555555555556, V
54259, 150.71944444444443, N
54463, 151.2861111111111, N
54634, 151.76111111111112, V
54864, 152.4, N
55083, 153.00833333333333, N
55273, 153.5361111111111, V
55421, 153.94722222222222, +
55569, 154.35833333333332, N
55799, 154.99722222222223, F
55952, 155.42222222222222, V
56266, 156.29444444444445, N
56454, 156.81666666666666, V
56628, 157.3, V
56932, 158.14444444444445, N
57122, 158.67222222222222, F
57300, 159.16666666666666, V
57553, 159.86944444444444, N
57771, 160.475, F
57933, 160.925, V
58230, 161.75, N
58444, 162.34444444444443, F
58608, 162.8, V
58877, 163.54722222222222, N
59075, 164.09722222222223, F
59222, 164.50555555555556, V
59504, 165.2888888888889, N
59714, 165.87222222222223, F
59798, 166.10555555555555, +
59883, 166.34166666666667, V
60149, 167.08055555555555, N
60352, 167.64444444444445, N
60519, 168.10833333333332, V
60763, 168.7861111111111, N
60971, 169.36388888888888, N
61159, 169.88611111111112, V
61405, 170.56944444444446, N
61619, 171.1638888888889, N
61785, 171.625, V
62097, 172.49166666666667, N
62321, 173.11388888888888, N
62481, 173.55833333333334, V
62749, 174.30277777777778, N
62953, 174.86944444444444, N
63116, 175.32222222222222, V
63364, 176.01111111111112, N
63562, 176.5611111111111, N
63750, 177.08333333333334, V
63865, 177.40277777777777, +
63980, 177.72222222222223, N
64191, 178.30833333333334, N
64397, 178.88055555555556, F
64562, 179.3388888888889, V
64854, 180.15, N
65053, 180.70277777777778, F
65216, 181.15555555555557, V
65449, 181.80277777777778, N
65634, 182.31666666666666, N
65820, 182.83333333333334, F
66017, 183.38055555555556, N
66218, 183.9388888888889, N
66419, 184.49722222222223, N
66589, 184.96944444444443, V
66792, 185.53333333333333, N
66976, 186.04444444444445, N
67168, 186.57777777777778, F
67331, 187.03055555555557, V
67560, 187.66666666666666, N
67747, 188.1861111111111, N
67931, 188.69722222222222, N
68133, 189.25833333333333, N
68342, 189.8388888888889, N
68552, 190.42222222222222, F
68719, 190.88611111111112, V
68979, 191.60833333333332, N
69190, 192.19444444444446, F
69347, 192.63055555555556, V
69617, 193.38055555555556, N
69812, 193.92222222222222, F
69962, 194.3388888888889, V
70230, 195.08333333333334, N
70441, 195.66944444444445, F
70604, 196.12222222222223, V
70882, 196.89444444444445, N
71084, 197.45555555555555, F
71245, 197.90277777777777, V
71510, 198.63888888888889, N
71711, 199.19722222222222, F
71868, 199.63333333333333, V
72126, 200.35, N
72318, 200.88333333333333, F
72486, 201.35, V
72755, 202.09722222222223, N
72969, 202.69166666666666, N
73134, 203.15, V
73377, 203.825, N
73579, 204.38611111111112, N
73740, 204.83333333333334, V
73992, 205.53333333333333, N
74193, 206.09166666666667, F
74266, 206.29444444444445, +
74339, 206.49722222222223, V
74594, 207.20555555555555, N
74802, 207.78333333333333, N
74969, 208.24722222222223, V
75210, 208.91666666666666, N
75407, 209.4638888888889, N
75607, 210.01944444444445, V
75711, 210.30833333333334, +
75815, 210.59722222222223, N
76010, 211.13888888888889, N
76204, 211.67777777777778, N
76400, 212.22222222222223, N
76590, 212.75, N
76793, 213.3138888888889, F
76964, 213.7888888888889, V
77240, 214.55555555555554, N
77449, 215.13611111111112, F
77605, 215.56944444444446, V
77869, 216.30277777777778, N
78071, 216.86388888888888, F
78232, 217.3111111111111, V
78464, 217.95555555555555, N
78646, 218.4611111111111, N
78839, 218.99722222222223, N
79042, 219.5611111111111, N
79262, 220.17222222222222, N
79468, 220.74444444444444, V
79639, 221.21944444444443, V
79931, 222.03055555555557, N
80126, 222.57222222222222, F
80282, 223.00555555555556, V
80525, 223.68055555555554, N
80723, 224.23055555555555, N
80898, 224.71666666666667, V
81108, 225.3, N
81310, 225.86111111111111, N
81509, 226.4138888888889, F
81674, 226.87222222222223, V
81894, 227.48333333333332, N
82078, 227.99444444444444, N
82274, 228.5388888888889, N
82435, 228.98611111111111, V
82647, 229.575, N
82829, 230.08055555555555, N
83005, 230.56944444444446, N
83167, 231.01944444444445, V
83400, 231.66666666666666, N
83606, 232.23888888888888, N
83804, 232.7888888888889, N
84002, 233.3388888888889, N
84194, 233.87222222222223, N
84395, 234.43055555555554, F
84553, 234.86944444444444, V
84814, 235.59444444444443, N
85012, 236.14444444444445, N
85166, 236.57222222222222, V
85401, 237.225, N
85606, 237.79444444444445, N
85810, 238.36111111111111, N
86016, 238.93333333333334, N
86225, 239.51388888888889, N
86432, 240.0888888888889, F
86591, 240.53055555555557, V
86884, 241.34444444444443, N
87069, 241.85833333333332, V
87225, 242.29166666666666, V
87488, 243.0222222222222, N
87694, 243.59444444444443, F
87865, 244.06944444444446, V
88107, 244.74166666666667, N
88308, 245.3, N
88487, 245.79722222222222, V
88714, 246.42777777777778, N
88929, 247.025, N
89124, 247.56666666666666, V
89366, 248.23888888888888, N
89562, 248.78333333333333, F
89719, 249.21944444444443, V
89996, 249.98888888888888, N
90211, 250.5861111111111, F
90374, 251.0388888888889, V
90631, 251.75277777777777, N
90834, 252.31666666666666, N
91002, 252.78333333333333, V
91224, 253.4, N
91426, 253.9611111111111, N
91630, 254.52777777777777, N
91844, 255.12222222222223, N
92054, 255.70555555555555, N
92266, 256.2944444444444, F
92446, 256.7944444444444, V
92723, 257.56388888888887, N
92927, 258.13055555555553, F
93085, 258.56944444444446, V
93348, 259.3, N
93543, 259.84166666666664, F
93695, 260.2638888888889, V
93924, 260.9, N
94130, 261.47222222222223, N
94318, 261.99444444444447, V
94537, 262.60277777777776, N
94733, 263.14722222222224, N
94929, 263.69166666666666, F
95095, 264.15277777777777, V
95357, 264.88055555555553, N
95556, 265.43333333333334, F
95715, 265.875, V
95950, 266.52777777777777, N
96153, 267.09166666666664, N
96335, 267.59722222222223, V
96572, 268.25555555555553, N
96788, 268.85555555555555, N
96997, 269.43611111111113, F
97162, 269.89444444444445, V
97463, 270.73055555555555, N
97651, 271.2527777777778, V
97812, 271.7, V
98103, 272.5083333333333, N
98297, 273.0472222222222, V
98477, 273.5472222222222, V
98748, 274.3, N
98952, 274.8666666666667, F
99031, 275.0861111111111, +
99111, 275.30833333333334, V
99354, 275.98333333333335, N
99560, 276.55555555555554, N
99735, 277.0416666666667, V
99964, 277.6777777777778, N
100163, 278.23055555555555, N
100332, 278.7, V
100568, 279.35555555555555, N
100787, 279.9638888888889, N
100977, 280.4916666666667, V
101248, 281.24444444444447, N
101452, 281.81111111111113, F
101610, 282.25, V
101870, 282.97222222222223, N
102077, 283.5472222222222, F
102238, 283.99444444444447, V
102487, 284.68611111111113, N
102688, 285.24444444444447, N
102862, 285.72777777777776, V
102977, 286.0472222222222, +
103092, 286.3666666666667, N
103292, 286.9222222222222, N
103495, 287.4861111111111, F
103660, 287.94444444444446, V
103932, 288.7, N
104132, 289.25555555555553, F
104287, 289.68611111111113, V
104532, 290.3666666666667, N
104740, 290.94444444444446, N
104934, 291.48333333333335, V
105165, 292.125, N
105374, 292.7055555555556, N
105577, 293.26944444444445, V
105742, 293.72777777777776, V
106047, 294.575, N
106240, 295.1111111111111, V
106400, 295.55555555555554, V
106661, 296.28055555555557, N
106854, 296.81666666666666, F
107015, 297.2638888888889, V
107262, 297.95, N
107473, 298.5361111111111, N
107684, 299.1222222222222, N
107896, 299.7111111111111, N
108113, 300.31388888888887, N
108307, 300.85277777777776, V
108478, 301.3277777777778, V
108764, 302.1222222222222, N
108952, 302.64444444444445, V
109125, 303.125, V
109439, 303.9972222222222, N
109650, 304.5833333333333, F
109815, 305.0416666666667, V
110065, 305.7361111111111, N
110277, 306.325, N
110441, 306.78055555555557, V
110679, 307.44166666666666, N
110879, 307.9972222222222, N
111044, 308.4555555555556, V
111309, 309.19166666666666, N
111529, 309.8027777777778, F
111693, 310.2583333333333, V
111977, 311.0472222222222, N
112182, 311.6166666666667, F
112262, 311.8388888888889, +
112342, 312.06111111111113, V
112599, 312.775, N
112805, 313.34722222222223, N
112977, 313.825, V
113201, 314.4472222222222, N
113402, 315.00555555555553, N
113590, 315.52777777777777, V
113845, 316.2361111111111, N
114057, 316.825, N
114254, 317.3722222222222, V
114493, 318.0361111111111, N
114706, 318.6277777777778, N
114888, 319.1333333333333, V
115002, 319.45, +
115117, 319.76944444444445, N
115314, 320.31666666666666, N
115523, 320.89722222222224, F
115747, 321.51944444444445, N
115976, 322.15555555555557, N
116194, 322.7611111111111, V
116411, 323.3638888888889, N
116627, 323.9638888888889, N
116843, 324.56388888888887, N
117064, 325.1777777777778, N
117282, 325.78333333333336, F
117441, 326.225, V
117693, 326.925, N
117909, 327.525, N
118106, 328.0722222222222, V
118349, 328.7472222222222, N
118553, 329.31388888888887, N
118751, 329.8638888888889, N
118953, 330.425, N
119155, 330.9861111111111, N
119353, 331.5361111111111, F
119511, 331.975, V
119770, 332.69444444444446, N
119984, 333.2888888888889, F
120148, 333.74444444444447, V
120409, 334.46944444444443, N
120612, 335.03333333333336, N
120798, 335.55, V
121008, 336.1333333333333, N
121196, 336.65555555555557, N
121382, 337.1722222222222, N
121542, 337.6166666666667, V
121754, 338.2055555555556, N
121943, 338.73055555555555, N
122073, 339.09166666666664, ~
122137, 339.26944444444445, N
122314, 339.7611111111111, V
122546, 340.40555555555557, N
122741, 340.9472222222222, N
122935, 341.4861111111111, N
123097, 341.93611111111113, V
123334, 342.59444444444443, N
123535, 343.15277777777777, N
123726, 343.68333333333334, V
123921, 344.225, N
124101, 344.725, N
124298, 345.27222222222224, N
124469, 345.7472222222222, V
124697, 346.38055555555553, N
124902, 346.95, N
125099, 347.4972222222222, F
125263, 347.9527777777778, V
125488, 348.5777777777778, N
125679, 349.10833333333335, N
125862, 349.6166666666667, N
126051, 350.14166666666665, N
126240, 350.6666666666667, N
126428, 351.18888888888887, N
126622, 351.72777777777776, F
126815, 352.2638888888889, N
127008, 352.8, N
127201, 353.3361111111111, N
127362, 353.78333333333336, V
127571, 354.3638888888889, N
127753, 354.86944444444447, N
127941, 355.39166666666665, N
128103, 355.84166666666664, V
128303, 356.39722222222224, N
128492, 356.9222222222222, N
128697, 357.4916666666667, F
128870, 357.97222222222223, V
129112, 358.64444444444445, N
129311, 359.1972222222222, N
129494, 359.7055555555556, N
129684, 360.23333333333335, N
129873, 360.7583333333333, N
130058, 361.27222222222224, N
130239, 361.775, V
130429, 362.3027777777778, N
130611, 362.80833333333334, N
130799, 363.3305555555556, N
130971, 363.80833333333334, V
131177, 364.38055555555553, N
131371, 364.9194444444444, N
131565, 365.4583333333333, N
131734, 365.9277777777778, V
131938, 366.49444444444447, N
132110, 366.97222222222223, N
132289, 367.46944444444443, N
132463, 367.9527777777778, F
132630, 368.4166666666667, N
132808, 368.9111111111111, N
132989, 369.4138888888889, N
133054, 369.59444444444443, |
133180, 369.94444444444446, N
133366, 370.4611111111111, N
133563, 371.0083333333333, N
133753, 371.5361111111111, N
133963, 372.11944444444447, N
134028, 372.3, |
134158, 372.6611111111111, N
134345, 373.18055555555554, N
134529, 373.69166666666666, N
134709, 374.19166666666666, F
134890, 374.69444444444446, N
135083, 375.23055555555555, N
135284, 375.7888888888889, N
135370, 376.02777777777777, +
135457, 376.26944444444445, V
135716, 376.9888888888889, N
135930, 377.5833333333333, N
136102, 378.06111111111113, V
136281, 378.55833333333334, ~
136345, 378.7361111111111, N
136549, 379.3027777777778, N
136736, 379.8222222222222, V
136992, 380.53333333333336, N
137204, 381.1222222222222, N
137390, 381.6388888888889, V
137533, 382.0361111111111, +
137677, 382.43611111111113, N
137908, 383.0777777777778, F
138062, 383.50555555555553, V
138386, 384.40555555555557, N
138560, 384.8888888888889, V
138849, 385.69166666666666, N
139049, 386.2472222222222, N
139241, 386.78055555555557, F
139412, 387.25555555555553, V
139705, 388.06944444444446, N
139921, 388.6694444444444, N
140106, 389.18333333333334, V
140340, 389.8333333333333, N
140553, 390.425, N
140752, 390.97777777777776, F
140917, 391.43611111111113, V
141199, 392.21944444444443, N
141360, 392.6666666666667, V
141632, 393.4222222222222, N
141843, 394.0083333333333, N
142060, 394.6111111111111, F
142231, 395.0861111111111, V
142505, 395.84722222222223, N
142674, 396.31666666666666, V
142918, 396.99444444444447, N
143117, 397.5472222222222, N
143316, 398.1, N
143477, 398.5472222222222, V
143741, 399.28055555555557, N
143964, 399.9, N
144184, 400.5111111111111, F
144347, 400.9638888888889, V
144651, 401.80833333333334, N
144873, 402.425, F
145026, 402.85, V
145322, 403.6722222222222, N
145521, 404.225, F
145668, 404.6333333333333, V
145944, 405.4, N
146157, 405.9916666666667, N
146371, 406.5861111111111, F
146546, 407.0722222222222, V
146826, 407.85, N
147035, 408.43055555555554, N
147219, 408.94166666666666, V
147456, 409.6, N
147677, 410.2138888888889, N
147875, 410.7638888888889, V
148051, 411.2527777777778, V
148372, 412.14444444444445, N
148587, 412.7416666666667, F
148753, 413.2027777777778, V
149048, 414.02222222222224, N
149265, 414.625, F
149419, 415.0527777777778, V
149676, 415.76666666666665, N
149869, 416.3027777777778, N
150050, 416.80555555555554, V
150311, 417.53055555555557, N
150530, 418.1388888888889, N
150739, 418.71944444444443, V
150928, 419.24444444444447, V
151273, 420.2027777777778, N
151460, 420.72222222222223, V
151737, 421.4916666666667, N
151959, 422.10833333333335, N
152159, 422.6638888888889, F
152337, 423.15833333333336, V
152667, 424.075, N
152882, 424.6722222222222, V
153077, 425.2138888888889, V
153360, 426.0, N
153570, 426.5833333333333, F
153724, 427.0111111111111, V
154015, 427.81944444444446, N
154213, 428.36944444444447, F
154374, 428.81666666666666, V
154705, 429.7361111111111, N
154914, 430.31666666666666, V
155103, 430.84166666666664, V
155397, 431.65833333333336, N
155619, 432.275, F
155785, 432.7361111111111, V
156062, 433.50555555555553, N
156264, 434.06666666666666, F
156411, 434.475, V
156694, 435.2611111111111, N
156925, 435.90277777777777, F
157089, 436.35833333333335, V
157412, 437.25555555555553, N
157627, 437.85277777777776, F
157778, 438.27222222222224, V
158080, 439.1111111111111, N
158297, 439.7138888888889, F
158445, 440.125, V
158736, 440.93333333333334, N
158949, 441.525, F
159113, 441.98055555555555, V
159446, 442.90555555555557, N
159656, 443.4888888888889, V
159832, 443.97777777777776, V
160139, 444.8305555555556, N
160343, 445.39722222222224, F
160498, 445.8277777777778, V
160803, 446.675, N
161023, 447.2861111111111, F
161195, 447.7638888888889, V
161507, 448.63055555555553, N
161722, 449.22777777777776, F
161882, 449.6722222222222, V
162167, 450.4638888888889, N
162378, 451.05, F
162533, 451.48055555555555, V
162832, 452.31111111111113, N
163035, 452.875, F
163202, 453.3388888888889, V
163534, 454.2611111111111, N
163755, 454.875, F
163925, 455.34722222222223, V
164207, 456.13055555555553, N
164414, 456.7055555555556, F
164573, 457.14722222222224, V
164850, 457.9166666666667, N
165046, 458.4611111111111, F
165211, 458.9194444444444, V
165464, 459.6222222222222, N
165674, 460.2055555555556, N
165883, 460.7861111111111, N
166103, 461.39722222222224, N
166336, 462.0444444444444, N
166541, 462.6138888888889, V
166739, 463.1638888888889, V
167060, 464.05555555555554, N
167246, 464.5722222222222, V
167429, 465.0805555555556, V
167803, 466.11944444444447, N
168009, 466.69166666666666, V
168199, 467.21944444444443, V
168518, 468.10555555555555, N
168717, 468.65833333333336, V
168898, 469.1611111111111, V
169221, 470.05833333333334, N
169403, 470.56388888888887, V
169587, 471.075, V
169928, 472.02222222222224, N
170129, 472.5805555555556, V
170330, 473.1388888888889, V
170659, 474.0527777777778, N
170855, 474.59722222222223, V
171036, 475.1, V
171348, 475.96666666666664, N
171541, 476.5027777777778, V
171720, 477.0, V
172044, 477.9, N
172249, 478.46944444444443, V
172430, 478.97222222222223, V
172754, 479.8722222222222, N
172952, 480.4222222222222, V
173140, 480.94444444444446, V
173461, 481.8361111111111, N
173642, 482.3388888888889, V
173834, 482.8722222222222, V
174139, 483.71944444444443, N
174363, 484.34166666666664, F
174535, 484.81944444444446, V
174821, 485.6138888888889, N
175027, 486.18611111111113, F
175192, 486.64444444444445, V
175504, 487.5111111111111, N
175698, 488.05, V
175870, 488.52777777777777, V
176198, 489.43888888888887, N
176397, 489.9916666666667, V
176588, 490.52222222222224, V
176895, 491.375, N
177108, 491.96666666666664, F
177273, 492.425, V
177566, 493.2388888888889, N
177757, 493.76944444444445, V
177925, 494.2361111111111, V
178250, 495.1388888888889, N
178455, 495.7083333333333, V
178643, 496.23055555555555, V
178975, 497.15277777777777, N
179165, 497.68055555555554, V
179345, 498.18055555555554, V
179641, 499.0027777777778, N
179838, 499.55, F
180004, 500.0111111111111, V
180307, 500.85277777777776, N
180508, 501.4111111111111, V
180693, 501.925, V
181048, 502.9111111111111, N
181247, 503.4638888888889, V
181422, 503.95, V
181755, 504.875, N
181942, 505.39444444444445, V
182118, 505.8833333333333, V
182472, 506.8666666666667, N
182668, 507.4111111111111, V
182853, 507.925, V
183214, 508.9277777777778, N
183405, 509.4583333333333, V
183585, 509.9583333333333, V
183914, 510.8722222222222, N
184104, 511.4, V
184273, 511.86944444444447, V
184576, 512.7111111111111, N
184779, 513.275, V
184972, 513.8111111111111, V
185307, 514.7416666666667, N
185500, 515.2777777777778, V
185674, 515.7611111111111, V
185980, 516.6111111111111, N
186174, 517.15, V
186339, 517.6083333333333, V
186643, 518.4527777777778, N
186841, 519.0027777777777, V
187018, 519.4944444444444, V
187364, 520.4555555555555, N
187573, 521.0361111111112, V
187745, 521.5138888888889, V
188048, 522.3555555555556, N
188240, 522.8888888888889, F
188418, 523.3833333333333, V
188685, 524.125, N
188886, 524.6833333333333, F
189051, 525.1416666666667, V
189395, 526.0972222222222, N
189599, 526.6638888888889, V
189765, 527.125, V
190098, 528.05, N
190298, 528.6055555555556, V
190467, 529.075, V
190772, 529.9222222222222, N
190956, 530.4333333333333, V
191130, 530.9166666666666, V
191419, 531.7194444444444, N
191645, 532.3472222222222, F
191804, 532.7888888888889, V
192102, 533.6166666666667, N
192307, 534.1861111111111, F
192470, 534.6388888888889, V
192794, 535.5388888888889, N
192989, 536.0805555555555, V
193148, 536.5222222222222, V
193470, 537.4166666666666, N
193674, 537.9833333333333, V
193846, 538.4611111111111, V
194154, 539.3166666666667, N
194357, 539.8805555555556, V
194532, 540.3666666666667, V
194844, 541.2333333333333, N
195033, 541.7583333333333, V
195202, 542.2277777777778, V
195507, 543.075, N
195716, 543.6555555555556, V
195888, 544.1333333333333, V
196173, 544.925, N
196379, 545.4972222222223, F
196542, 545.95, V
196781, 546.6138888888889, N
196980, 547.1666666666666, N
197165, 547.6805555555555, F
197358, 548.2166666666667, N
197540, 548.7222222222222, N
197745, 549.2916666666666, F
197918, 549.7722222222222, V
198257, 550.7138888888888, N
198454, 551.2611111111111, V
198628, 551.7444444444444, V
198958, 552.6611111111112, N
199146, 553.1833333333333, V
199313, 553.6472222222222, V
199591, 554.4194444444445, N
199800, 555.0, F
199964, 555.4555555555555, V
200290, 556.3611111111111, N
200490, 556.9166666666666, V
200668, 557.4111111111112, V
201009, 558.3583333333333, N
201198, 558.8833333333333, V
201360, 559.3333333333334, V
201683, 560.2305555555556, N
201868, 560.7444444444444, V
202041, 561.225, V
202359, 562.1083333333333, N
202577, 562.7138888888888, F
202746, 563.1833333333333, V
203026, 563.9611111111111, N
203232, 564.5333333333333, F
203388, 564.9666666666667, V
203692, 565.8111111111111, N
203883, 566.3416666666667, F
204047, 566.7972222222222, V
204360, 567.6666666666666, N
204569, 568.2472222222223, V
204749, 568.7472222222223, V
205038, 569.55, N
205253, 570.1472222222222, F
205408, 570.5777777777778, V
205700, 571.3888888888889, N
205895, 571.9305555555555, V
206055, 572.375, V
206386, 573.2944444444445, N
206590, 573.8611111111111, V
206771, 574.3638888888889, V
207077, 575.2138888888888, N
207278, 575.7722222222222, V
207445, 576.2361111111111, V
207737, 577.0472222222222, N
207942, 577.6166666666667, F
208104, 578.0666666666667, V
208372, 578.8111111111111, N
208585, 579.4027777777778, F
208755, 579.875, V
209064, 580.7333333333333, N
209276, 581.3222222222222, F
209432, 581.7555555555556, V
209754, 582.65, N
209947, 583.1861111111111, V
210128, 583.6888888888889, V
210407, 584.4638888888888, N
210616, 585.0444444444445, F
210780, 585.5, V
211085, 586.3472222222222, N
211301, 586.9472222222222, F
211474, 587.4277777777778, V
211772, 588.2555555555556, N
211979, 588.8305555555555, F
212140, 589.2777777777778, V
212422, 590.0611111111111, N
212615, 590.5972222222222, F
212779, 591.0527777777778, V
213097, 591.9361111111111, N
213314, 592.5388888888889, F
213486, 593.0166666666667, V
213771, 593.8083333333333, N
213983, 594.3972222222222, F
214148, 594.8555555555556, V
214450, 595.6944444444445, N
214644, 596.2333333333333, V
214800, 596.6666666666666, V
215102, 597.5055555555556, N
215310, 598.0833333333334, V
215499, 598.6083333333333, V
215782, 599.3944444444444, N
215993, 599.9805555555556, F
216149, 600.4138888888889, V
216415, 601.1527777777778, N
216620, 601.7222222222222, F
216783, 602.175, V
217069, 602.9694444444444, N
217287, 603.575, F
217451, 604.0305555555556, V
217750, 604.8611111111111, N
217960, 605.4444444444445, F
218116, 605.8777777777777, V
218409, 606.6916666666667, N
218614, 607.2611111111111, F
218766, 607.6833333333333, V
219038, 608.4388888888889, N
219247, 609.0194444444444, F
219420, 609.5, V
219718, 610.3277777777778, N
219936, 610.9333333333333, F
220091, 611.3638888888889, V
220364, 612.1222222222223, N
220571, 612.6972222222222, F
220723, 613.1194444444444, V
221002, 613.8944444444444, N
221200, 614.4444444444445, F
221359, 614.8861111111111, V
221636, 615.6555555555556, N
221848, 616.2444444444444, F
222015, 616.7083333333334, V
222281, 617.4472222222222, N
222490, 618.0277777777778, F
222656, 618.4888888888889, V
222925, 619.2361111111111, N
223128, 619.8, F
223287, 620.2416666666667, V
223566, 621.0166666666667, N
223775, 621.5972222222222, F
223949, 622.0805555555555, V
224226, 622.85, N
224427, 623.4083333333333, F
224673, 624.0916666666667, N
224959, 624.8861111111111, N
225147, 625.4083333333333, V
225307, 625.8527777777778, V
225617, 626.7138888888888, N
225814, 627.2611111111111, V
225993, 627.7583333333333, V
226244, 628.4555555555555, N
226442, 629.0055555555556, N
226636, 629.5444444444445, N
226825, 630.0694444444445, N
227012, 630.5888888888888, N
227193, 631.0916666666667, N
227377, 631.6027777777778, N
227566, 632.1277777777777, N
227744, 632.6222222222223, N
227939, 633.1638888888889, N
228137, 633.7138888888888, N
228347, 634.2972222222222, N
228565, 634.9027777777778, N
228771, 635.475, F
228947, 635.9638888888888, V
229227, 636.7416666666667, N
229428, 637.3, F
229591, 637.7527777777777, V
229839, 638.4416666666667, N
230049, 639.025, F
230226, 639.5166666666667, V
230494, 640.2611111111111, N
230706, 640.85, N
230894, 641.3722222222223, V
231118, 641.9944444444444, N
231328, 642.5777777777778, N
231537, 643.1583333333333, F
231697, 643.6027777777778, V
231978, 644.3833333333333, N
232181, 644.9472222222222, F
232372, 645.4777777777778, V
232606, 646.1277777777777, N
232820, 646.7222222222222, N
233026, 647.2944444444445, N
233224, 647.8444444444444, N
233425, 648.4027777777778, N
233629, 648.9694444444444, F
233790, 649.4166666666666, V
234047, 650.1305555555556, N
234255, 650.7083333333334, N
234433, 651.2027777777778, V
234709, 651.9694444444444, N
234931, 652.5861111111111, F
235093, 653.0361111111112, V
235400, 653.8888888888889, N
235617, 654.4916666666667, F
235773, 654.925, V
236035, 655.6527777777778, N
236235, 656.2083333333334, F
236390, 656.6388888888889, V
236646, 657.35, N
236869, 657.9694444444444, N
237066, 658.5166666666667, V
237344, 659.2888888888889, N
237556, 659.8777777777777, F
237717, 660.325, V
238042, 661.2277777777778, N
238238, 661.7722222222222, V
238401, 662.225, V
238691, 663.0305555555556, N
238899, 663.6083333333333, F
239075, 664.0972222222222, V
239356, 664.8777777777777, N
239570, 665.4722222222222, F
239739, 665.9416666666667, V
240012, 666.7, N
240220, 667.2777777777778, F
240369, 667.6916666666667, V
240646, 668.4611111111111, N
240860, 669.0555555555555, F
241029, 669.525, V
241321, 670.3361111111111, N
241531, 670.9194444444445, F
241696, 671.3777777777777, V
241954, 672.0944444444444, N
242164, 672.6777777777778, F
242322, 673.1166666666667, V
242595, 673.875, N
242794, 674.4277777777778, F
242948, 674.8555555555556, V
243252, 675.7, N
243468, 676.3, F
243649, 676.8027777777778, V
243930, 677.5833333333334, N
244133, 678.1472222222222, F
244288, 678.5777777777778, V
244576, 679.3777777777777, N
244776, 679.9333333333333, F
244931, 680.3638888888889, V
245231, 681.1972222222222, N
245444, 681.7888888888889, F
245616, 682.2666666666667, V
245899, 683.0527777777778, N
246113, 683.6472222222222, F
246277, 684.1027777777778, V
246558, 684.8833333333333, N
246753, 685.425, F
246916, 685.8777777777777, V
247181, 686.6138888888889, N
247387, 687.1861111111111, F
247557, 687.6583333333333, V
247831, 688.4194444444445, N
248042, 689.0055555555556, F
248205, 689.4583333333334, V
248465, 690.1805555555555, N
248676, 690.7666666666667, F
248840, 691.2222222222222, V
249103, 691.9527777777778, N
249296, 692.4888888888889, F
249454, 692.9277777777778, V
249724, 693.6777777777778, N
249941, 694.2805555555556, F
250108, 694.7444444444444, V
250421, 695.6138888888889, N
250623, 696.175, V
250791, 696.6416666666667, V
251064, 697.4, N
251269, 697.9694444444444, F
251419, 698.3861111111111, V
251691, 699.1416666666667, N
251907, 699.7416666666667, F
252071, 700.1972222222222, V
252372, 701.0333333333333, N
252577, 701.6027777777778, F
252739, 702.0527777777778, V
253047, 702.9083333333333, N
253242, 703.45, V
253407, 703.9083333333333, V
253679, 704.6638888888889, N
253892, 705.2555555555556, F
254069, 705.7472222222223, V
254378, 706.6055555555556, N
254597, 707.2138888888888, F
254759, 707.6638888888889, V
255047, 708.4638888888888, N
255254, 709.0388888888889, F
255412, 709.4777777777778, V
255696, 710.2666666666667, N
255899, 710.8305555555555, F
256060, 711.2777777777778, V
256372, 712.1444444444444, N
256595, 712.7638888888889, F
256768, 713.2444444444444, V
257082, 714.1166666666667, N
257283, 714.675, V
257462, 715.1722222222222, V
257736, 715.9333333333333, N
257938, 716.4944444444444, F
258096, 716.9333333333333, V
258429, 717.8583333333333, N
258638, 718.4388888888889, V
258827, 718.9638888888888, V
259127, 719.7972222222222, N
259345, 720.4027777777778, F
259515, 720.875, V
259790, 721.6388888888889, N
259998, 722.2166666666667, F
260141, 722.6138888888889, V
260445, 723.4583333333334, N
260668, 724.0777777777778, F
260833, 724.5361111111112, V
261140, 725.3888888888889, N
261353, 725.9805555555556, F
261517, 726.4361111111111, V
261800, 727.2222222222222, N
262014, 727.8166666666667, F
262173, 728.2583333333333, V
262456, 729.0444444444445, N
262677, 729.6583333333333, F
262839, 730.1083333333333, V
263146, 730.9611111111111, N
263358, 731.55, F
263525, 732.0138888888889, V
263818, 732.8277777777778, N
264029, 733.4138888888889, F
264184, 733.8444444444444, V
264479, 734.6638888888889, N
264688, 735.2444444444444, V
264876, 735.7666666666667, V
265214, 736.7055555555555, N
265410, 737.25, V
265591, 737.7527777777777, V
265883, 738.5638888888889, N
266090, 739.1388888888889, F
266251, 739.5861111111111, V
266546, 740.4055555555556, N
266768, 741.0222222222222, V
266920, 741.4444444444445, V
267257, 742.3805555555556, N
267470, 742.9722222222222, V
267645, 743.4583333333334, V
267948, 744.3, N
268155, 744.875, F
268312, 745.3111111111111, V
268609, 746.1361111111111, N
268817, 746.7138888888888, F
268976, 747.1555555555556, V
269290, 748.0277777777778, N
269515, 748.6527777777778, F
269684, 749.1222222222223, V
269973, 749.925, N
270197, 750.5472222222222, F
270370, 751.0277777777778, V
270657, 751.825, N
270859, 752.3861111111111, F
271014, 752.8166666666667, V
271323, 753.675, N
271553, 754.3138888888889, F
271713, 754.7583333333333, V
272029, 755.6361111111111, N
272233, 756.2027777777778, V
272397, 756.6583333333333, V
272716, 757.5444444444445, N
272916, 758.1, V
273085, 758.5694444444445, V
273395, 759.4305555555555, N
273604, 760.0111111111111, V
273781, 760.5027777777777, V
274092, 761.3666666666667, N
274304, 761.9555555555555, F
274491, 762.475, V
274772, 763.2555555555556, N
274976, 763.8222222222222, F
275139, 764.275, V
275417, 765.0472222222222, N
275635, 765.6527777777778, F
275804, 766.1222222222223, V
276095, 766.9305555555555, N
276312, 767.5333333333333, F
276467, 767.9638888888888, V
276783, 768.8416666666667, N
276980, 769.3888888888889, V
277157, 769.8805555555556, V
277434, 770.65, N
277649, 771.2472222222223, F
277806, 771.6833333333333, V
278117, 772.5472222222222, N
278341, 773.1694444444445, F
278516, 773.6555555555556, V
278805, 774.4583333333334, N
279014, 775.0388888888889, V
279174, 775.4833333333333, V
279453, 776.2583333333333, N
279663, 776.8416666666667, F
279820, 777.2777777777778, V
280148, 778.1888888888889, N
280348, 778.7444444444444, V
280529, 779.2472222222223, V
280854, 780.15, N
281050, 780.6944444444445, V
281224, 781.1777777777778, V
281501, 781.9472222222222, N
281699, 782.4972222222223, F
281855, 782.9305555555555, V
282148, 783.7444444444444, N
282374, 784.3722222222223, F
282537, 784.825, V
282859, 785.7194444444444, N
283053, 786.2583333333333, V
283230, 786.75, V
283543, 787.6194444444444, N
283734, 788.15, V
283890, 788.5833333333334, V
284182, 789.3944444444444, N
284404, 790.0111111111111, F
284569, 790.4694444444444, V
284860, 791.2777777777778, N
285080, 791.8888888888889, F
285235, 792.3194444444445, V
285519, 793.1083333333333, N
285722, 793.6722222222222, F
285894, 794.15, V
286177, 794.9361111111111, N
286397, 795.5472222222222, F
286561, 796.0027777777777, V
286851, 796.8083333333333, N
287069, 797.4138888888889, F
287224, 797.8444444444444, V
287502, 798.6166666666667, N
287719, 799.2194444444444, F
287867, 799.6305555555556, V
288163, 800.4527777777778, N
288356, 800.9888888888889, V
288539, 801.4972222222223, V
288879, 802.4416666666667, N
289083, 803.0083333333333, V
289254, 803.4833333333333, V
289531, 804.2527777777777, N
289740, 804.8333333333334, F
289891, 805.2527777777777, V
290170, 806.0277777777778, N
290379, 806.6083333333333, F
290535, 807.0416666666666, V
290850, 807.9166666666666, N
291054, 808.4833333333333, V
291237, 808.9916666666667, V
291535, 809.8194444444445, N
291748, 810.4111111111112, F
291911, 810.8638888888889, V
292174, 811.5944444444444, N
292379, 812.1638888888889, F
292524, 812.5666666666667, V
292816, 813.3777777777777, N
293038, 813.9944444444444, F
293205, 814.4583333333334, V
293487, 815.2416666666667, N
293696, 815.8222222222222, F
293851, 816.2527777777777, V
294152, 817.0888888888888, N
294353, 817.6472222222222, F
294529, 818.1361111111111, V
294797, 818.8805555555556, N
295012, 819.4777777777778, F
295177, 819.9361111111111, V
295469, 820.7472222222223, N
295689, 821.3583333333333, F
295844, 821.7888888888889, V
296132, 822.5888888888888, N
296334, 823.15, F
296507, 823.6305555555556, V
296781, 824.3916666666667, N
296991, 824.975, F
297160, 825.4444444444445, V
297451, 826.2527777777777, N
297667, 826.8527777777778, F
297827, 827.2972222222222, V
298118, 828.1055555555556, N
298331, 828.6972222222222, F
298492, 829.1444444444444, V
298788, 829.9666666666667, N
298988, 830.5222222222222, V
299148, 830.9666666666667, V
299464, 831.8444444444444, N
299686, 832.4611111111111, V
299848, 832.9111111111112, V
300130, 833.6944444444445, N
300340, 834.2777777777778, F
300501, 834.725, V
300788, 835.5222222222222, N
300996, 836.1, F
301151, 836.5305555555556, V
301425, 837.2916666666666, N
301638, 837.8833333333333, F
301810, 838.3611111111111, V
302081, 839.1138888888889, N
302294, 839.7055555555555, F
302457, 840.1583333333333, V
302755, 840.9861111111111, N
302966, 841.5722222222222, F
303124, 842.0111111111111, V
303408, 842.8, N
303626, 843.4055555555556, F
303796, 843.8777777777777, V
304088, 844.6888888888889, N
304303, 845.2861111111112, F
304458, 845.7166666666667, V
304778, 846.6055555555556, N
304987, 847.1861111111111, F
305150, 847.6388888888889, V
305415, 848.375, N
305626, 848.9611111111111, F
305790, 849.4166666666666, V
306108, 850.3, N
306324, 850.9, V
306504, 851.4, V
306821, 852.2805555555556, N
307015, 852.8194444444445, V
307195, 853.3194444444445, V
307492, 854.1444444444444, N
307696, 854.7111111111111, F
307854, 855.15, V
308161, 856.0027777777777, N
308386, 856.6277777777777, F
308547, 857.075, V
308860, 857.9444444444445, N
309082, 858.5611111111111, F
309242, 859.0055555555556, V
309528, 859.8, N
309729, 860.3583333333333, F
309885, 860.7916666666666, V
310207, 861.6861111111111, N
310428, 862.3, F
310595, 862.7638888888889, V
310898, 863.6055555555556, N
311111, 864.1972222222222, F
311276, 864.6555555555556, V
311570, 865.4722222222222, N
311780, 866.0555555555555, F
311926, 866.4611111111111, V
312213, 867.2583333333333, N
312432, 867.8666666666667, F
312605, 868.3472222222222, V
312910, 869.1944444444445, N
313123, 869.7861111111112, F
313282, 870.2277777777778, V
313547, 870.9638888888888, N
313756, 871.5444444444445, F
313914, 871.9833333333333, V
314169, 872.6916666666667, N
314398, 873.3277777777778, N
314587, 873.8527777777778, V
314864, 874.6222222222223, N
315081, 875.225, N
315259, 875.7194444444444, V
315591, 876.6416666666667, N
315800, 877.2222222222222, V
315959, 877.6638888888889, V
316271, 878.5305555555556, N
316475, 879.0972222222222, F
316652, 879.5888888888888, V
316910, 880.3055555555555, N
317119, 880.8861111111111, N
317314, 881.4277777777778, N
317506, 881.9611111111111, N
317700, 882.5, N
317904, 883.0666666666667, N
318115, 883.6527777777778, N
318315, 884.2083333333334, N
318516, 884.7666666666667, N
318737, 885.3805555555556, F
318892, 885.8111111111111, V
319202, 886.6722222222222, N
319420, 887.2777777777778, F
319581, 887.725, V
319822, 888.3944444444444, N
320017, 888.9361111111111, N
320206, 889.4611111111111, N
320373, 889.925, V
320628, 890.6333333333333, N
320848, 891.2444444444444, N
321061, 891.8361111111111, F
321269, 892.4138888888889, N
321476, 892.9888888888889, N
321685, 893.5694444444445, F
321850, 894.0277777777778, V
322082, 894.6722222222222, N
322279, 895.2194444444444, N
322471, 895.7527777777777, N
322644, 896.2333333333333, V
322864, 896.8444444444444, N
323082, 897.45, N
323320, 898.1111111111111, F
323484, 898.5666666666667, V
323548, 898.7444444444444, ~
323809, 899.4694444444444, N
324007, 900.0194444444444, V
324182, 900.5055555555556, V
324368, 901.0222222222222, ~
324464, 901.2888888888889, N
324672, 901.8666666666667, N
324837, 902.325, V
325086, 903.0166666666667, N
325167, 903.2416666666667, |
325300, 903.6111111111111, N
325513, 904.2027777777778, F
325688, 904.6888888888889, V
325815, 905.0416666666666, |
325996, 905.5444444444445, N
326108, 905.8555555555556, ~
326211, 906.1416666666667, F
326294, 906.3722222222223, +
326378, 906.6055555555556, V
326639, 907.3305555555555, N
326846, 907.9055555555556, N
327007, 908.3527777777778, V
327279, 909.1083333333333, N
327502, 909.7277777777778, N
327706, 910.2944444444445, V
327833, 910.6472222222222, +
327961, 911.0027777777777, N
328174, 911.5944444444444, N
328388, 912.1888888888889, F
328554, 912.65, V
328842, 913.45, N
329050, 914.0277777777778, F
329197, 914.4361111111111, V
329484, 915.2333333333333, N
329708, 915.8555555555556, F
329791, 916.0861111111111, +
329875, 916.3194444444445, V
330173, 917.1472222222222, N
330391, 917.7527777777777, N
330575, 918.2638888888889, V
330808, 918.9111111111112, N
331027, 919.5194444444444, N
331232, 920.0888888888888, V
331367, 920.4638888888888, +
331503, 920.8416666666667, N
331745, 921.5138888888889, N
331960, 922.1111111111111, V
332190, 922.75, V
332497, 923.6027777777778, N
332702, 924.1722222222222, V
332893, 924.7027777777778, V
333218, 925.6055555555556, N
333413, 926.1472222222222, V
333583, 926.6194444444444, V
333893, 927.4805555555556, N
334120, 928.1111111111111, F
334301, 928.6138888888889, V
334587, 929.4083333333333, N
334806, 930.0166666666667, F
334968, 930.4666666666667, V
335176, 931.0444444444445, V
335526, 932.0166666666667, N
335710, 932.5277777777778, V
335970, 933.25, N
336198, 933.8833333333333, N
336416, 934.4888888888889, V
336617, 935.0472222222222, V
336941, 935.9472222222222, N
337141, 936.5027777777777, V
337401, 937.225, N
337625, 937.8472222222222, N
337820, 938.3888888888889, V
338022, 938.95, V
338359, 939.8861111111111, N
338566, 940.4611111111111, V
338755, 940.9861111111111, V
339089, 941.9138888888889, N
339293, 942.4805555555556, V
339555, 943.2083333333334, N
339772, 943.8111111111111, N
339975, 944.375, F
340144, 944.8444444444444, V
340451, 945.6972222222222, N
340678, 946.3277777777778, V
340847, 946.7972222222222, V
341209, 947.8027777777778, N
341406, 948.35, V
341684, 949.1222222222223, N
341907, 949.7416666666667, N
342125, 950.3472222222222, F
342293, 950.8138888888889, V
342568, 951.5777777777778, N
342792, 952.2, N
342974, 952.7055555555555, V
343226, 953.4055555555556, N
343438, 953.9944444444444, N
343644, 954.5666666666667, F
343812, 955.0333333333333, V
344059, 955.7194444444444, N
344262, 956.2833333333333, N
344478, 956.8833333333333, N
344732, 957.5888888888888, N
344973, 958.2583333333333, N
345185, 958.8472222222222, V
345377, 959.3805555555556, V
345716, 960.3222222222222, N
345910, 960.8611111111111, V
346089, 961.3583333333333, V
346427, 962.2972222222222, N
346614, 962.8166666666667, V
346792, 963.3111111111111, V
347089, 964.1361111111111, N
347322, 964.7833333333333, F
347489, 965.2472222222223, V
347799, 966.1083333333333, N
347999, 966.6638888888889, V
348176, 967.1555555555556, V
348510, 968.0833333333334, N
348697, 968.6027777777778, V
348894, 969.15, V
349236, 970.1, N
349438, 970.6611111111112, V
349629, 971.1916666666667, V
349970, 972.1388888888889, N
350068, 972.4111111111112, +
350166, 972.6833333333333, V
350431, 973.4194444444445, N
350660, 974.0555555555555, N
350852, 974.5888888888888, V
351133, 975.3694444444444, N
351387, 976.075, N
351605, 976.6805555555555, V
351895, 977.4861111111111, N
352133, 978.1472222222222, N
352344, 978.7333333333333, V
352486, 979.1277777777777, +
352628, 979.5222222222222, N
352838, 980.1055555555556, V
353000, 980.5555555555555, V
353360, 981.5555555555555, N
353563, 982.1194444444444, V
353779, 982.7194444444444, V
354056, 983.4888888888889, N
354280, 984.1111111111111, N
354490, 984.6944444444445, F
354664, 985.1777777777778, V
354970, 986.0277777777778, N
355163, 986.5638888888889, V
355369, 987.1361111111111, V
355743, 988.175, N
355942, 988.7277777777778, V
356236, 989.5444444444445, N
356466, 990.1833333333333, N
356692, 990.8111111111111, F
356927, 991.4638888888888, N
357156, 992.1, N
357339, 992.6083333333333, V
357661, 993.5027777777777, N
357895, 994.1527777777778, V
358065, 994.625, V
358417, 995.6027777777778, N
358613, 996.1472222222222, V
358798, 996.6611111111112, V
359069, 997.4138888888889, N
359277, 997.9916666666667, F
359441, 998.4472222222222, V
359748, 999.3, N
359959, 999.8861111111111, V
360158, 1000.4388888888889, V
360481, 1001.3361111111111, N
360583, 1001.6194444444444, +
360686, 1001.9055555555556, V
360930, 1002.5833333333334, N
361157, 1003.2138888888888, N
361353, 1003.7583333333333, V
361626, 1004.5166666666667, N
361864, 1005.1777777777778, N
362074, 1005.7611111111111, V
362368, 1006.5777777777778, N
362610, 1007.25, N
362806, 1007.7944444444445, V
363080, 1008.5555555555555, N
363312, 1009.2, N
363511, 1009.7527777777777, V
363627, 1010.075, +
363744, 1010.4, N
363947, 1010.9638888888888, N
364161, 1011.5583333333333, F
364362, 1012.1166666666667, V
364621, 1012.8361111111111, N
364860, 1013.5, N
365049, 1014.025, V
365360, 1014.8888888888889, N
365587, 1015.5194444444444, F
365755, 1015.9861111111111, V
365930, 1016.4722222222222, V
366098, 1016.9388888888889, N
366323, 1017.5638888888889, N
366558, 1018.2166666666667, N
366728, 1018.6888888888889, V
366931, 1019.2527777777777, V
367081, 1019.6694444444445, N
367315, 1020.3194444444445, N
367542, 1020.95, F
367715, 1021.4305555555555, V
368030, 1022.3055555555555, N
368219, 1022.8305555555555, V
368415, 1023.375, V
368756, 1024.3222222222223, N
368966, 1024.9055555555556, V
369211, 1025.5861111111112, N
369432, 1026.2, N
369648, 1026.8, F
369819, 1027.275, V
370145, 1028.1805555555557, N
370334, 1028.7055555555555, V
370528, 1029.2444444444445, V
370834, 1030.0944444444444, N
371051, 1030.6972222222223, V
371285, 1031.3472222222222, V
371533, 1032.036111111111, N
371751, 1032.6416666666667, N
371851, 1032.9194444444445, +
371952, 1033.2, V
372225, 1033.9583333333333, N
372444, 1034.5666666666666, N
372653, 1035.1472222222221, V
372945, 1035.9583333333333, N
373192, 1036.6444444444444, N
373396, 1037.2111111111112, V
373686, 1038.0166666666667, N
373937, 1038.713888888889, N
374133, 1039.2583333333334, V
374407, 1040.0194444444444, N
374621, 1040.6138888888888, N
374824, 1041.1777777777777, V
375094, 1041.9277777777777, N
375336, 1042.6, N
375551, 1043.1972222222223, V
375811, 1043.9194444444445, N
376048, 1044.5777777777778, N
376244, 1045.1222222222223, V
376547, 1045.963888888889, N
376767, 1046.575, F
376943, 1047.0638888888889, V
377108, 1047.5222222222221, V
377196, 1047.7666666666667, +
377285, 1048.013888888889, N
377517, 1048.6583333333333, N
377744, 1049.2888888888888, F
377909, 1049.7472222222223, V
378140, 1050.388888888889, V
378300, 1050.8333333333333, N
378512, 1051.4222222222222, N
378728, 1052.0222222222221, F
378894, 1052.4833333333333, V
379195, 1053.3194444444443, N
379416, 1053.9333333333334, V
379604, 1054.4555555555555, V
379908, 1055.3, N
380117, 1055.8805555555555, F
380302, 1056.3944444444444, V
380523, 1057.0083333333334, N
380726, 1057.5722222222223, N
380933, 1058.1472222222221, F
381118, 1058.661111111111, V
381391, 1059.4194444444445, N
381631, 1060.0861111111112, F
381820, 1060.611111111111, V
382174, 1061.5944444444444, N
382370, 1062.138888888889, V
382627, 1062.8527777777779, N
382849, 1063.4694444444444, N
383065, 1064.0694444444443, V
383262, 1064.6166666666666, V
383543, 1065.3972222222221, N
383785, 1066.0694444444443, N
383993, 1066.6472222222221, V
384284, 1067.4555555555555, N
384537, 1068.1583333333333, N
384739, 1068.7194444444444, V
385044, 1069.5666666666666, N
385263, 1070.175, S
385434, 1070.65, V
385619, 1071.1638888888888, V
385779, 1071.6083333333333, N
385989, 1072.1916666666666, S
386239, 1072.8861111111112, F
386399, 1073.3305555555555, V
386791, 1074.4194444444445, N
386894, 1074.7055555555555, +
386997, 1074.9916666666666, V
387260, 1075.7222222222222, N
387482, 1076.338888888889, N
387680, 1076.888888888889, V
387937, 1077.6027777777779, N
388194, 1078.3166666666666, N
388401, 1078.8916666666667, V
388723, 1079.786111111111, N
388969, 1080.4694444444444, N
389135, 1080.9305555555557, V
389308, 1081.411111111111, V
389473, 1081.8694444444445, N
389702, 1082.5055555555555, N
389920, 1083.111111111111, V
390190, 1083.861111111111, N
390435, 1084.5416666666667, N
390647, 1085.1305555555555, V
390952, 1085.9777777777779, N
391197, 1086.6583333333333, N
391401, 1087.225, V
391707, 1088.075, N
391937, 1088.713888888889, N
392111, 1089.1972222222223, V
392290, 1089.6944444444443, V
392467, 1090.1861111111111, N
392732, 1090.9222222222222, N
392967, 1091.575, V
393220, 1092.2777777777778, N
393454, 1092.9277777777777, N
393656, 1093.4888888888888, V
393944, 1094.2888888888888, N
394175, 1094.9305555555557, N
394384, 1095.5111111111112, V
394658, 1096.2722222222221, N
394907, 1096.963888888889, N
395120, 1097.5555555555557, V
395427, 1098.4083333333333, N
395660, 1099.0555555555557, N
395856, 1099.6, V
396137, 1100.3805555555555, N
396361, 1101.0027777777777, N
396574, 1101.5944444444444, V
396865, 1102.4027777777778, N
397110, 1103.0833333333333, N
397311, 1103.6416666666667, V
397602, 1104.45, N
397843, 1105.1194444444445, N
398058, 1105.7166666666667, V
398311, 1106.4194444444445, N
398538, 1107.05, N
398748, 1107.6333333333334, V
399031, 1108.4194444444445, N
399269, 1109.0805555555555, N
399482, 1109.6722222222222, V
399734, 1110.3722222222223, N
399965, 1111.013888888889, N
400182, 1111.6166666666666, V
400458, 1112.3833333333334, N
400686, 1113.0166666666667, N
400915, 1113.6527777777778, V
401057, 1114.0472222222222, +
401199, 1114.4416666666666, N
401445, 1115.125, N
401641, 1115.6694444444445, V
401820, 1116.1666666666667, V
402176, 1117.1555555555556, N
402367, 1117.6861111111111, V
402609, 1118.3583333333333, N
402820, 1118.9444444444443, N
403041, 1119.5583333333334, V
403323, 1120.3416666666667, N
403567, 1121.0194444444444, N
403768, 1121.5777777777778, V
404072, 1122.4222222222222, N
404307, 1123.075, F
404457, 1123.4916666666666, V
404644, 1124.0111111111112, V
404807, 1124.463888888889, N
405072, 1125.2, N
405270, 1125.75, V
405616, 1126.7111111111112, N
405729, 1127.025, +
405842, 1127.338888888889, V
406113, 1128.0916666666667, N
406349, 1128.7472222222223, N
406548, 1129.3, V
406803, 1130.0083333333334, N
407026, 1130.6277777777777, N
407230, 1131.1944444444443, V
407543, 1132.0638888888889, N
407788, 1132.7444444444445, N
408010, 1133.361111111111, V
408277, 1134.1027777777779, N
408520, 1134.7777777777778, N
408717, 1135.325, V
408975, 1136.0416666666667, N
409194, 1136.65, N
409403, 1137.2305555555556, V
409671, 1137.975, N
409916, 1138.6555555555556, N
410134, 1139.2611111111112, V
410397, 1139.9916666666666, N
410620, 1140.611111111111, N
410820, 1141.1666666666667, V
411087, 1141.9083333333333, N
411300, 1142.5, N
411505, 1143.0694444444443, V
411745, 1143.736111111111, N
411983, 1144.3972222222221, N
412215, 1145.0416666666667, V
412468, 1145.7444444444445, N
412704, 1146.4, N
412904, 1146.9555555555555, V
413169, 1147.6916666666666, N
413388, 1148.3, N
413585, 1148.8472222222222, V
413860, 1149.611111111111, N
414097, 1150.2694444444444, N
414306, 1150.85, V
414559, 1151.5527777777777, N
414791, 1152.1972222222223, N
414989, 1152.7472222222223, V
415269, 1153.525, N
415502, 1154.1722222222222, N
415689, 1154.6916666666666, V
415969, 1155.4694444444444, N
416208, 1156.1333333333334, N
416426, 1156.7388888888888, V
416678, 1157.4388888888889, N
416909, 1158.0805555555555, N
417108, 1158.6333333333334, V
417376, 1159.3777777777777, N
417599, 1159.9972222222223, N
417793, 1160.536111111111, V
418084, 1161.3444444444444, N
418319, 1161.9972222222223, N
418530, 1162.5833333333333, V
418799, 1163.3305555555555, N
419029, 1163.9694444444444, N
419234, 1164.5388888888888, V
419500, 1165.2777777777778, N
419716, 1165.8777777777777, N
419920, 1166.4444444444443, V
420179, 1167.1638888888888, N
420424, 1167.8444444444444, N
420636, 1168.4333333333334, V
420724, 1168.6777777777777, ~
420899, 1169.1638888888888, N
421130, 1169.8055555555557, N
421328, 1170.3555555555556, V
421617, 1171.1583333333333, N
421849, 1171.8027777777777, N
422044, 1172.3444444444444, V
422163, 1172.675, +
422282, 1173.0055555555555, N
422507, 1173.6305555555555, N
422728, 1174.2444444444445, F
422945, 1174.8472222222222, N
423162, 1175.45, N
423371, 1176.0305555555556, N
423568, 1176.5777777777778, N
423764, 1177.1222222222223, N
423951, 1177.6416666666667, N
424136, 1178.1555555555556, N
424321, 1178.6694444444445, N
424510, 1179.1944444444443, N
424699, 1179.7194444444444, N
424884, 1180.2333333333333, N
425070, 1180.75, N
425251, 1181.2527777777777, N
425428, 1181.7444444444445, N
425598, 1182.2166666666667, N
425775, 1182.7083333333333, N
425946, 1183.1833333333334, N
426112, 1183.6444444444444, N
426276, 1184.1, N
426435, 1184.5416666666667, N
426596, 1184.9888888888888, N
426768, 1185.4666666666667, N
426949, 1185.9694444444444, N
427130, 1186.4722222222222, N
427302, 1186.95, N
427473, 1187.425, N
427632, 1187.8666666666666, N
427805, 1188.3472222222222, N
427976, 1188.8222222222223, N
428143, 1189.286111111111, N
428315, 1189.763888888889, N
428492, 1190.2555555555555, F
428671, 1190.7527777777777, F
428867, 1191.2972222222222, N
429066, 1191.85, F
429268, 1192.411111111111, F
429482, 1193.0055555555555, N
429680, 1193.5555555555557, F
429875, 1194.0972222222222, N
429976, 1194.3777777777777, |
430064, 1194.6222222222223, N
430242, 1195.1166666666666, N
430427, 1195.6305555555555, N
430616, 1196.1555555555556, N
430795, 1196.6527777777778, N
430993, 1197.2027777777778, N
431195, 1197.763888888889, N
431401, 1198.3361111111112, F
431608, 1198.911111111111, N
431807, 1199.463888888889, N
431995, 1199.986111111111, F
432192, 1200.5333333333333, N
432386, 1201.0722222222223, N
432570, 1201.5833333333333, N
432755, 1202.0972222222222, N
432868, 1202.411111111111, ~
432932, 1202.588888888889, N
433125, 1203.125, F
433332, 1203.7, N
433528, 1204.2444444444445, N
433662, 1204.6166666666666, ~
433726, 1204.7944444444445, N
433922, 1205.338888888889, N
434106, 1205.85, N
434292, 1206.3666666666666, N
434477, 1206.8805555555555, N
434665, 1207.4027777777778, N
434859, 1207.9416666666666, N
435041, 1208.4472222222223, N
435223, 1208.9527777777778, N
435420, 1209.5, N
435623, 1210.0638888888889, N
435824, 1210.6222222222223, N
436023, 1211.175, F
436222, 1211.7277777777779, N
436425, 1212.2916666666667, N
436629, 1212.8583333333333, N
436831, 1213.4194444444445, N
437042, 1214.0055555555555, N
437223, 1214.5083333333334, F
437431, 1215.0861111111112, N
437644, 1215.6777777777777, N
437857, 1216.2694444444444, F
437925, 1216.4583333333333, ~
438077, 1216.8805555555555, N
438292, 1217.4777777777779, N
438464, 1217.9555555555555, F
438697, 1218.6027777777779, N
438893, 1219.1472222222221, N
438962, 1219.338888888889, ~
439094, 1219.7055555555555, N
439296, 1220.2666666666667, N
439482, 1220.7833333333333, N
439685, 1221.3472222222222, N
439867, 1221.8527777777779, V
440122, 1222.5611111111111, N
440334, 1223.15, N
440508, 1223.6333333333334, V
440728, 1224.2444444444445, N
440918, 1224.7722222222221, N
441108, 1225.3, F
441299, 1225.8305555555555, N
441485, 1226.3472222222222, N
441675, 1226.875, N
441884, 1227.4555555555555, F
442101, 1228.0583333333334, N
442325, 1228.6805555555557, N
442524, 1229.2333333333333, V
442671, 1229.6416666666667, |
442762, 1229.8944444444444, N
442973, 1230.4805555555556, N
443170, 1231.0277777777778, F
443379, 1231.6083333333333, N
443578, 1232.161111111111, N
443774, 1232.7055555555555, F
443990, 1233.3055555555557, N
444199, 1233.8861111111112, N
444410, 1234.4722222222222, F
444623, 1235.0638888888889, N
444820, 1235.611111111111, N
445022, 1236.1722222222222, N
445197, 1236.6583333333333, V
445417, 1237.2694444444444, N
445619, 1237.8305555555555, N
445803, 1238.3416666666667, F
445995, 1238.875, N
446186, 1239.4055555555556, N
446387, 1239.963888888889, N
446589, 1240.525, N
446783, 1241.0638888888889, N
446983, 1241.6194444444445, N
447185, 1242.1805555555557, N
447383, 1242.7305555555556, F
447576, 1243.2666666666667, N
447766, 1243.7944444444445, N
447962, 1244.338888888889, N
448167, 1244.9083333333333, N
448356, 1245.4333333333334, V
448657, 1246.2694444444444, N
448850, 1246.8055555555557, V
449084, 1247.4555555555555, N
449297, 1248.0472222222222, N
449497, 1248.6027777777779, F
449737, 1249.2694444444444, N
449961, 1249.8916666666667, N
450161, 1250.4472222222223, F
450385, 1251.0694444444443, N
450610, 1251.6944444444443, N
450719, 1251.9972222222223, +
450829, 1252.3027777777777, V
451086, 1253.0166666666667, N
451305, 1253.625, N
451503, 1254.175, V
451761, 1254.8916666666667, N
451987, 1255.5194444444444, N
452176, 1256.0444444444445, V
452429, 1256.7472222222223, N
452649, 1257.3583333333333, N
452854, 1257.9277777777777, V
453100, 1258.611111111111, N
453326, 1259.2388888888888, N
453453, 1259.5916666666667, ~
453533, 1259.8138888888889, V
453644, 1260.1222222222223, +
453756, 1260.4333333333334, N
453806, 1260.5722222222223, |
453967, 1261.0194444444444, N
454126, 1261.4611111111112, |
454171, 1261.5861111111112, Q
454388, 1262.1888888888889, N
454583, 1262.7305555555556, N
454782, 1263.2833333333333, F
454998, 1263.8833333333334, N
455214, 1264.4833333333333, N
455432, 1265.088888888889, F
455639, 1265.6638888888888, V
455869, 1266.3027777777777, N
456088, 1266.911111111111, N
456255, 1267.375, V
456439, 1267.8861111111112, V
456701, 1268.6138888888888, N
456897, 1269.1583333333333, V
457096, 1269.7111111111112, N
457300, 1270.2777777777778, N
457495, 1270.8194444444443, N
457582, 1271.0611111111111, ~
458569, 1273.8027777777777, ~
458621, 1273.9472222222223, Q
458798, 1274.4388888888889, N
458987, 1274.963888888889, N
459178, 1275.4944444444445, F
459385, 1276.0694444444443, N
459600, 1276.6666666666667, N
459797, 1277.213888888889, V
460070, 1277.9722222222222, N
460289, 1278.5805555555555, N
460496, 1279.1555555555556, V
460724, 1279.7888888888888, N
460774, 1279.9277777777777, ~
460922, 1280.338888888889, N
461110, 1280.861111111111, F
461329, 1281.4694444444444, N
461552, 1282.088888888889, N
461772, 1282.7, F
462001, 1283.3361111111112, N
462216, 1283.9333333333334, N
462412, 1284.4777777777779, V
462640, 1285.111111111111, N
462842, 1285.6722222222222, N
463042, 1286.2277777777779, N
463249, 1286.8027777777777, N
463471, 1287.4194444444445, N
463684, 1288.0111111111112, V
463968, 1288.8, N
464215, 1289.486111111111, N
464408, 1290.0222222222221, V
464681, 1290.7805555555556, N
464885, 1291.3472222222222, N
465086, 1291.9055555555556, F
465284, 1292.4555555555555, N
465486, 1293.0166666666667, N
465696, 1293.6, N
465908, 1294.1888888888889, N
466107, 1294.7416666666666, N
466304, 1295.2888888888888, N
466491, 1295.8083333333334, N
466688, 1296.3555555555556, N
466891, 1296.9194444444445, N
467091, 1297.475, N
467284, 1298.0111111111112, N
467471, 1298.5305555555556, N
467680, 1299.111111111111, N
467909, 1299.7472222222223, N
468130, 1300.361111111111, F
468352, 1300.9777777777779, N
468575, 1301.5972222222222, N
468793, 1302.2027777777778, F
469012, 1302.8111111111111, N
469225, 1303.4027777777778, N
469432, 1303.9777777777779, F
469625, 1304.513888888889, N
469825, 1305.0694444444443, N
470024, 1305.6222222222223, N
470229, 1306.1916666666666, F
470439, 1306.775, N
470641, 1307.3361111111112, N
470843, 1307.8972222222221, N
471039, 1308.4416666666666, N
471237, 1308.9916666666666, N
471440, 1309.5555555555557, N
471633, 1310.0916666666667, V
471883, 1310.786111111111, N
472127, 1311.463888888889, N
472323, 1312.0083333333334, V
472511, 1312.5305555555556, V
472850, 1313.4722222222222, N
473062, 1314.0611111111111, N
473261, 1314.6138888888888, N
473462, 1315.1722222222222, N
473664, 1315.7333333333333, N
473861, 1316.2805555555556, V
474142, 1317.0611111111111, N
474349, 1317.6361111111112, V
474652, 1318.4777777777779, N
474895, 1319.1527777777778, F
475054, 1319.5944444444444, V
475341, 1320.3916666666667, N
475534, 1320.9277777777777, V
475758, 1321.55, N
475956, 1322.1, N
476147, 1322.6305555555555, V
476410, 1323.361111111111, N
476626, 1323.9611111111112, N
476845, 1324.5694444444443, N
477061, 1325.1694444444445, N
477287, 1325.7972222222222, N
477474, 1326.3166666666666, V
477632, 1326.7555555555555, V
477929, 1327.5805555555555, N
478116, 1328.1, V
478314, 1328.65, N
478509, 1329.1916666666666, N
478705, 1329.736111111111, N
478905, 1330.2916666666667, N
479100, 1330.8333333333333, N
479290, 1331.361111111111, N
479481, 1331.8916666666667, F
479694, 1332.4833333333333, N
479929, 1333.1361111111112, N
480125, 1333.6805555555557, V
480402, 1334.45, N
480593, 1334.9805555555556, V
480826, 1335.6277777777777, N
481035, 1336.2083333333333, N
481246, 1336.7944444444445, F
481475, 1337.4305555555557, N
481704, 1338.0666666666666, N
481897, 1338.6027777777779, V
482183, 1339.3972222222221, N
482377, 1339.9361111111111, V
482602, 1340.5611111111111, N
482813, 1341.1472222222221, N
483024, 1341.7333333333333, F
483252, 1342.3666666666666, N
483482, 1343.0055555555555, N
483676, 1343.5444444444445, V
483946, 1344.2944444444445, N
484160, 1344.888888888889, N
484334, 1345.3722222222223, V
484529, 1345.9138888888888, V
484797, 1346.6583333333333, N
484889, 1346.9138888888888, +
484982, 1347.1722222222222, V
485229, 1347.8583333333333, N
485460, 1348.5, N
485656, 1349.0444444444445, V
485912, 1349.7555555555555, N
486112, 1350.3111111111111, N
486305, 1350.8472222222222, V
486534, 1351.4833333333333, N
486745, 1352.0694444444443, N
486924, 1352.5666666666666, V
487066, 1352.9611111111112, +
487209, 1353.3583333333333, N
487422, 1353.95, V
487660, 1354.611111111111, N
487873, 1355.2027777777778, N
488075, 1355.763888888889, F
488271, 1356.3083333333334, N
488462, 1356.838888888889, N
488643, 1357.3416666666667, N
488824, 1357.8444444444444, N
489000, 1358.3333333333333, N
489170, 1358.8055555555557, N
489356, 1359.3222222222223, N
489545, 1359.8472222222222, N
489744, 1360.4, N
489941, 1360.9472222222223, N
490148, 1361.5222222222221, N
490341, 1362.0583333333334, F
490558, 1362.661111111111, N
490756, 1363.2111111111112, N
490950, 1363.75, N
491141, 1364.2805555555556, F
491319, 1364.775, N
491517, 1365.325, N
491725, 1365.9027777777778, F
491936, 1366.4888888888888, N
492146, 1367.0722222222223, N
492357, 1367.6583333333333, N
492533, 1368.1472222222221, V
492795, 1368.875, N
493004, 1369.4555555555555, N
493197, 1369.9916666666666, V
493436, 1370.6555555555556, N
493648, 1371.2444444444445, N
493846, 1371.7944444444445, V
494136, 1372.6, N
494356, 1373.2111111111112, V
494612, 1373.9222222222222, N
494828, 1374.5222222222221, N
495029, 1375.0805555555555, V
495252, 1375.7, N
495458, 1376.2722222222221, N
495644, 1376.7888888888888, F
495861, 1377.3916666666667, N
496104, 1378.0666666666666, N
496309, 1378.6361111111112, V
496629, 1379.525, N
496832, 1380.088888888889, V
497104, 1380.8444444444444, N
497328, 1381.4666666666667, N
497525, 1382.013888888889, V
497709, 1382.525, V
497885, 1383.013888888889, ~
498007, 1383.3527777777779, N
498195, 1383.875, V
498442, 1384.5611111111111, N
498665, 1385.1805555555557, N
498864, 1385.7333333333333, V
499084, 1386.3444444444444, N
499292, 1386.9222222222222, N
499495, 1387.486111111111, F
499710, 1388.0833333333333, N
499913, 1388.6472222222221, N
500016, 1388.9333333333334, +
500052, 1389.0333333333333, ~
500120, 1389.2222222222222, V
500399, 1389.9972222222223, N
500629, 1390.6361111111112, N
500833, 1391.2027777777778, V
501069, 1391.8583333333333, N
501291, 1392.475, N
501491, 1393.0305555555556, V
501722, 1393.6722222222222, N
501924, 1394.2333333333333, N
502113, 1394.7583333333334, V
502239, 1395.1083333333333, +
502365, 1395.4583333333333, N
502595, 1396.0972222222222, N
502814, 1396.7055555555555, F
503044, 1397.3444444444444, N
503264, 1397.9555555555555, N
503464, 1398.5111111111112, V
503762, 1399.338888888889, N
503987, 1399.963888888889, F
504085, 1400.236111111111, +
504184, 1400.5111111111112, V
504426, 1401.1833333333334, N
504652, 1401.8111111111111, N
504855, 1402.375, V
505116, 1403.1, N
505340, 1403.7222222222222, N
505545, 1404.2916666666667, V
505688, 1404.6888888888889, +
505831, 1405.0861111111112, N
506057, 1405.713888888889, N
506239, 1406.2194444444444, V
506416, 1406.7111111111112, V
506720, 1407.5555555555557, N
506943, 1408.175, V
507161, 1408.7805555555556, N
507368, 1409.3555555555556, N
507577, 1409.9361111111111, N
507746, 1410.4055555555556, V
507988, 1411.0777777777778, N
508188, 1411.6333333333334, N
508381, 1412.1694444444445, F
508584, 1412.7333333333333, N
508787, 1413.2972222222222, N
508993, 1413.8694444444445, N
509187, 1414.4083333333333, V
509419, 1415.0527777777777, N
509627, 1415.6305555555555, N
509821, 1416.1694444444445, F
510024, 1416.7333333333333, N
510227, 1417.2972222222222, N
510427, 1417.8527777777779, N
510603, 1418.3416666666667, V
510849, 1419.025, N
511070, 1419.638888888889, N
511277, 1420.213888888889, V
511557, 1420.9916666666666, N
511791, 1421.6416666666667, N
512016, 1422.2666666666667, F
512198, 1422.7722222222221, V
512458, 1423.4944444444445, N
512658, 1424.05, F
512867, 1424.6305555555555, N
513082, 1425.2277777777779, N
513294, 1425.8166666666666, V
513550, 1426.5277777777778, N
513773, 1427.1472222222221, N
513986, 1427.7388888888888, V
514193, 1428.3138888888889, N
514407, 1428.9083333333333, N
514623, 1429.5083333333334, F
514825, 1430.0694444444443, N
515019, 1430.6083333333333, N
515226, 1431.1833333333334, F
515413, 1431.7027777777778, V
515714, 1432.5388888888888, N
515817, 1432.825, +
515920, 1433.111111111111, V
516204, 1433.9, N
516427, 1434.5194444444444, N
516627, 1435.075, V
516859, 1435.7194444444444, N
517071, 1436.3083333333334, N
517282, 1436.8944444444444, V
517389, 1437.1916666666666, +
517497, 1437.4916666666666, N
517705, 1438.0694444444443, N
517918, 1438.661111111111, F
518129, 1439.2472222222223, N
518343, 1439.8416666666667, N
518558, 1440.4388888888889, V
518750, 1440.9722222222222, V
519037, 1441.7694444444444, N
519231, 1442.3083333333334, V
519441, 1442.8916666666667, N
519654, 1443.4833333333333, N
519875, 1444.0972222222222, F
520094, 1444.7055555555555, N
520319, 1445.3305555555555, N
520426, 1445.6277777777777, +
520534, 1445.9277777777777, V
520745, 1446.513888888889, N
520963, 1447.1194444444445, N
521161, 1447.6694444444445, V
521413, 1448.3694444444445, N
521622, 1448.95, N
521826, 1449.5166666666667, V
522077, 1450.213888888889, N
522313, 1450.8694444444445, N
522516, 1451.4333333333334, V
522789, 1452.1916666666666, N
523005, 1452.7916666666667, N
523207, 1453.3527777777779, V
523376, 1453.8222222222223, V
523496, 1454.1555555555556, +
523616, 1454.4888888888888, N
523808, 1455.0222222222221, F
524027, 1455.6305555555555, N
524260, 1456.2777777777778, N
524476, 1456.8777777777777, V
524724, 1457.5666666666666, N
524930, 1458.138888888889, N
525138, 1458.7166666666667, F
525350, 1459.3055555555557, N
525553, 1459.8694444444445, N
525740, 1460.388888888889, F
525933, 1460.925, N
526143, 1461.5083333333334, N
526349, 1462.0805555555555, N
526545, 1462.625, V
526770, 1463.25, N
526987, 1463.8527777777779, N
527180, 1464.388888888889, V
527462, 1465.1722222222222, N
527681, 1465.7805555555556, F
527839, 1466.2194444444444, V
528122, 1467.0055555555555, N
528326, 1467.5722222222223, V
528560, 1468.2222222222222, N
528769, 1468.8027777777777, N
528972, 1469.3666666666666, N
529160, 1469.888888888889, V
529387, 1470.5194444444444, N
529602, 1471.1166666666666, N
529782, 1471.6166666666666, V
530039, 1472.3305555555555, N
530238, 1472.8833333333334, F
530426, 1473.4055555555556, V
530690, 1474.138888888889, N
530911, 1474.7527777777777, N
531077, 1475.213888888889, V
531319, 1475.8861111111112, N
531525, 1476.4583333333333, N
531718, 1476.9944444444445, F
531928, 1477.5777777777778, N
532159, 1478.2194444444444, N
532348, 1478.7444444444445, V
532604, 1479.4555555555555, N
532843, 1480.1194444444445, N
533052, 1480.7, V
533345, 1481.513888888889, N
533572, 1482.1444444444444, N
533765, 1482.6805555555557, V
533963, 1483.2305555555556, V
534222, 1483.95, N
534417, 1484.4916666666666, V
534619, 1485.0527777777777, N
534824, 1485.6222222222223, N
535021, 1486.1694444444445, N
535212, 1486.7, F
535404, 1487.2333333333333, N
535600, 1487.7777777777778, N
535813, 1488.3694444444445, F
536042, 1489.0055555555555, N
536281, 1489.6694444444445, N
536471, 1490.1972222222223, V
536757, 1490.9916666666666, N
536961, 1491.5583333333334, V
537240, 1492.3333333333333, N
537478, 1492.9944444444445, N
537689, 1493.5805555555555, F
537896, 1494.1555555555556, N
538093, 1494.7027777777778, N
538209, 1495.025, ~
538290, 1495.25, F
538498, 1495.8277777777778, N
538708, 1496.411111111111, N
538898, 1496.9388888888889, V
539150, 1497.638888888889, N
539368, 1498.2444444444445, N
539456, 1498.4888888888888, ~
539584, 1498.8444444444444, V
539800, 1499.4444444444443, N
540016, 1500.0444444444445, N
540227, 1500.6305555555555, F
540442, 1501.2277777777779, N
540644, 1501.7888888888888, N
540841, 1502.3361111111112, F
541042, 1502.8944444444444, N
541251, 1503.475, N
541464, 1504.0666666666666, F
541635, 1504.5416666666667, V
541902, 1505.2833333333333, N
542111, 1505.8638888888888, F
542196, 1506.1, +
542281, 1506.3361111111112, V
542516, 1506.9888888888888, N
542720, 1507.5555555555557, N
542895, 1508.0416666666667, V
543123, 1508.675, N
543324, 1509.2333333333333, N
543512, 1509.7555555555555, V
543773, 1510.4805555555556, N
543992, 1511.088888888889, N
544172, 1511.588888888889, V
544450, 1512.361111111111, N
544664, 1512.9555555555555, F
544823, 1513.3972222222221, V
544966, 1513.7944444444445, +
545110, 1514.1944444444443, N
545310, 1514.75, F
545521, 1515.3361111111112, N
545730, 1515.9166666666667, N
545937, 1516.4916666666666, N
546112, 1516.9777777777779, V
546382, 1517.7277777777779, N
546586, 1518.2944444444445, F
546754, 1518.7611111111112, V
546997, 1519.4361111111111, N
547184, 1519.9555555555555, N
547360, 1520.4444444444443, V
547561, 1521.0027777777777, N
547764, 1521.5666666666666, N
547973, 1522.1472222222221, F
548162, 1522.6722222222222, V
548384, 1523.2888888888888, N
548580, 1523.8333333333333, N
548785, 1524.4027777777778, N
548993, 1524.9805555555556, N
549196, 1525.5444444444445, N
549395, 1526.0972222222222, N
549581, 1526.6138888888888, N
549780, 1527.1666666666667, N
549996, 1527.7666666666667, F
550108, 1528.0777777777778, ~
550210, 1528.361111111111, N
550422, 1528.95, N
550626, 1529.5166666666667, N
550796, 1529.9888888888888, V
551010, 1530.5833333333333, N
551195, 1531.0972222222222, N
551387, 1531.6305555555555, F
551591, 1532.1972222222223, N
551790, 1532.75, N
552003, 1533.3416666666667, F
552166, 1533.7944444444445, V
552449, 1534.5805555555555, N
552660, 1535.1666666666667, N
552848, 1535.6888888888889, V
553057, 1536.2694444444444, N
553259, 1536.8305555555555, N
553459, 1537.3861111111112, F
553681, 1538.0027777777777, N
553875, 1538.5416666666667, N
554090, 1539.138888888889, F
554293, 1539.7027777777778, V
554593, 1540.536111111111, N
554795, 1541.0972222222222, V
555044, 1541.7888888888888, N
555256, 1542.3777777777777, N
555462, 1542.95, F
555668, 1543.5222222222221, N
555886, 1544.1277777777777, N
556082, 1544.6722222222222, V
556364, 1545.4555555555555, N
556585, 1546.0694444444443, N
556801, 1546.6694444444445, F
557026, 1547.2944444444445, N
557254, 1547.9277777777777, N
557460, 1548.5, V
557686, 1549.1277777777777, N
557882, 1549.6722222222222, N
558074, 1550.2055555555555, N
558241, 1550.6694444444445, V
558480, 1551.3333333333333, N
558705, 1551.9583333333333, N
558921, 1552.5583333333334, F
559130, 1553.138888888889, N
559278, 1553.55, ~
559329, 1553.6916666666666, N
559539, 1554.275, N
559755, 1554.875, N
559985, 1555.513888888889, N
560202, 1556.1166666666666, N
560296, 1556.3777777777777, +
560390, 1556.638888888889, V
560625, 1557.2916666666667, N
560867, 1557.963888888889, N
561080, 1558.5555555555557, V
561347, 1559.2972222222222, N
561556, 1559.8777777777777, N
561777, 1560.4916666666666, V
562011, 1561.1416666666667, N
562244, 1561.7888888888888, N
562456, 1562.3777777777777, V
562677, 1562.9916666666666, N
562909, 1563.6361111111112, N
563119, 1564.2194444444444, V
563412, 1565.0333333333333, N
563644, 1565.6777777777777, N
563848, 1566.2444444444445, V
564126, 1567.0166666666667, N
564344, 1567.6222222222223, N
564538, 1568.161111111111, V
564805, 1568.9027777777778, N
565055, 1569.5972222222222, N
565259, 1570.1638888888888, V
565536, 1570.9333333333334, N
565777, 1571.6027777777779, N
565978, 1572.161111111111, V
566250, 1572.9166666666667, N
566482, 1573.5611111111111, N
566679, 1574.1083333333333, V
566939, 1574.8305555555555, N
567164, 1575.4555555555555, N
567372, 1576.0333333333333, V
567672, 1576.8666666666666, N
567898, 1577.4944444444445, N
568100, 1578.0555555555557, V
568372, 1578.8111111111111, N
568604, 1579.4555555555555, N
568795, 1579.986111111111, V
569059, 1580.7194444444444, N
569307, 1581.4083333333333, N
569509, 1581.9694444444444, V
569805, 1582.7916666666667, N
570054, 1583.4833333333333, N
570261, 1584.0583333333334, V
570556, 1584.8777777777777, N
570782, 1585.5055555555555, N
570976, 1586.0444444444445, V
571252, 1586.8111111111111, N
571482, 1587.45, N
571691, 1588.0305555555556, V
571986, 1588.85, N
572228, 1589.5222222222221, N
572423, 1590.0638888888889, V
572694, 1590.8166666666666, N
572939, 1591.4972222222223, N
573131, 1592.0305555555556, V
573433, 1592.8694444444445, N
573651, 1593.475, V
573936, 1594.2666666666667, N
574187, 1594.963888888889, N
574391, 1595.5305555555556, V
574666, 1596.2944444444445, N
574904, 1596.9555555555555, N
575096, 1597.4888888888888, V
575368, 1598.2444444444445, N
575595, 1598.875, N
575797, 1599.4361111111111, V
576092, 1600.2555555555555, N
576324, 1600.9, N
576532, 1601.4777777777779, V
576827, 1602.2972222222222, N
577058, 1602.9388888888889, N
577255, 1603.486111111111, V
577437, 1603.9916666666666, V
577771, 1604.9194444444445, N
577970, 1605.4722222222222, V
578258, 1606.2722222222221, N
578495, 1606.9305555555557, N
578696, 1607.4888888888888, V
578969, 1608.2472222222223, N
579196, 1608.8777777777777, N
579391, 1609.4194444444445, V
579684, 1610.2333333333333, N
579917, 1610.8805555555555, N
580108, 1611.411111111111, V
580293, 1611.925, V
580370, 1612.138888888889, +
580448, 1612.3555555555556, N
580704, 1613.0666666666666, N
580946, 1613.7388888888888, N
581110, 1614.1944444444443, V
581298, 1614.7166666666667, V
581456, 1615.1555555555556, N
581700, 1615.8333333333333, N
581899, 1616.3861111111112, V
582179, 1617.1638888888888, N
582439, 1617.8861111111112, N
582645, 1618.4583333333333, V
582976, 1619.3777777777777, N
583192, 1619.9777777777779, V
583370, 1620.4722222222222, V
583720, 1621.4444444444443, N
583909, 1621.9694444444444, V
584193, 1622.7583333333334, N
584427, 1623.4083333333333, N
584645, 1624.013888888889, V
584932, 1624.8111111111111, N
585185, 1625.513888888889, N
585379, 1626.0527777777777, V
585681, 1626.8916666666667, N
585894, 1627.4833333333333, V
586089, 1628.025, V
586461, 1629.0583333333334, N
586653, 1629.5916666666667, V
586970, 1630.4722222222222, N
587212, 1631.1444444444444, F
587361, 1631.5583333333334, V
587718, 1632.55, N
587909, 1633.0805555555555, V
588178, 1633.8277777777778, N
588394, 1634.4277777777777, N
588609, 1635.025, V
588848, 1635.6888888888889, N
589102, 1636.3944444444444, N
589304, 1636.9555555555555, V
589638, 1637.8833333333334, N
589844, 1638.4555555555555, V
590133, 1639.2583333333334, N
590377, 1639.9361111111111, N
590547, 1640.4083333333333, V
590719, 1640.8861111111112, V
590878, 1641.3277777777778, N
591127, 1642.0194444444444, N
591343, 1642.6194444444445, V
591654, 1643.4833333333333, N
591893, 1644.1472222222221, N
592057, 1644.6027777777779, V
592239, 1645.1083333333333, V
592410, 1645.5833333333333, N
592655, 1646.263888888889, N
592841, 1646.7805555555556, V
593152, 1647.6444444444444, N
593406, 1648.35, F
593552, 1648.7555555555555, V
593924, 1649.7888888888888, N
594024, 1650.0666666666666, +
594124, 1650.3444444444444, V
594400, 1651.111111111111, N
594618, 1651.7166666666667, N
594814, 1652.2611111111112, V
595048, 1652.911111111111, N
595272, 1653.5333333333333, N
595490, 1654.138888888889, V
595780, 1654.9444444444443, N
596013, 1655.5916666666667, N
596212, 1656.1444444444444, V
596494, 1656.9277777777777, N
596738, 1657.6055555555556, N
596933, 1658.1472222222221, V
597201, 1658.8916666666667, N
597434, 1659.5388888888888, N
597644, 1660.1222222222223, V
597937, 1660.9361111111111, N
598172, 1661.588888888889, N
598381, 1662.1694444444445, V
598640, 1662.888888888889, N
598882, 1663.5611111111111, N
599075, 1664.0972222222222, V
599210, 1664.4722222222222, +
599346, 1664.85, N
599573, 1665.4805555555556, N
599796, 1666.1, F
600010, 1666.6944444444443, N
600232, 1667.3111111111111, N
600454, 1667.9277777777777, F
600684, 1668.5666666666666, N
600903, 1669.175, N
601121, 1669.7805555555556, F
601342, 1670.3944444444444, N
601556, 1670.9888888888888, N
601764, 1671.5666666666666, V
602084, 1672.4555555555555, N
602331, 1673.1416666666667, F
602483, 1673.5638888888889, V
602830, 1674.5277777777778, N
603028, 1675.0777777777778, V
603329, 1675.9138888888888, N
603549, 1676.525, V
603713, 1676.9805555555556, V
604045, 1677.9027777777778, N
604242, 1678.45, V
604557, 1679.325, N
604795, 1679.986111111111, F
604950, 1680.4166666666667, V
605283, 1681.3416666666667, N
605469, 1681.8583333333333, V
605744, 1682.6222222222223, N
605969, 1683.2472222222223, N
606180, 1683.8333333333333, V
606408, 1684.4666666666667, V
606739, 1685.3861111111112, N
606926, 1685.9055555555556, V
607233, 1686.7583333333334, N
607452, 1687.3666666666666, V
607642, 1687.8944444444444, V
608015, 1688.9305555555557, N
608269, 1689.6361111111112, N
608527, 1690.3527777777779, N
608793, 1691.0916666666667, F
608946, 1691.5166666666667, V
609123, 1692.0083333333334, V
609301, 1692.5027777777777, N
609577, 1693.2694444444444, N
609772, 1693.8111111111111, V
610109, 1694.7472222222223, N
610313, 1695.3138888888889, V
610631, 1696.1972222222223, N
610853, 1696.8138888888889, V
611045, 1697.3472222222222, V
611430, 1698.4166666666667, N
611629, 1698.9694444444444, V
611825, 1699.513888888889, V
612157, 1700.4361111111111, N
612343, 1700.9527777777778, V
612617, 1701.713888888889, N
612859, 1702.3861111111112, N
613064, 1702.9555555555555, V
613353, 1703.7583333333334, N
613584, 1704.4, N
613758, 1704.8833333333334, V
613942, 1705.3944444444444, V
614107, 1705.8527777777779, N
614348, 1706.5222222222221, N
614531, 1707.0305555555556, V
614840, 1707.888888888889, N
615064, 1708.5111111111112, V
615405, 1709.4583333333333, N
615620, 1710.0555555555557, V
615804, 1710.5666666666666, V
616182, 1711.6166666666666, N
616368, 1712.1333333333334, V
616702, 1713.0611111111111, N
616924, 1713.6777777777777, V
617197, 1714.4361111111111, N
617465, 1715.1805555555557, N
617667, 1715.7416666666666, V
617968, 1716.5777777777778, N
618201, 1717.225, N
618365, 1717.6805555555557, V
618540, 1718.1666666666667, V
618694, 1718.5944444444444, N
618922, 1719.2277777777779, N
619137, 1719.825, V
619474, 1720.7611111111112, N
619703, 1721.3972222222221, V
619864, 1721.8444444444444, V
620234, 1722.8722222222223, N
620428, 1723.411111111111, V
620734, 1724.2611111111112, N
620953, 1724.8694444444445, F
621102, 1725.2833333333333, V
621463, 1726.286111111111, N
621662, 1726.838888888889, V
621964, 1727.6777777777777, N
622200, 1728.3333333333333, N
622389, 1728.8583333333333, V
622608, 1729.4666666666667, V
622900, 1730.2777777777778, N
623086, 1730.7944444444445, V
623381, 1731.6138888888888, N
623619, 1732.275, N
623797, 1732.7694444444444, V
623988, 1733.3, V
624356, 1734.3222222222223, N
624557, 1734.8805555555555, V
624716, 1735.3222222222223, V
625053, 1736.2583333333334, N
625234, 1736.7611111111112, V
625489, 1737.4694444444444, N
625736, 1738.1555555555556, N
625949, 1738.7472222222223, V
626218, 1739.4944444444445, N
626455, 1740.1527777777778, N
626652, 1740.7, V
626957, 1741.5472222222222, N
627165, 1742.125, V
627346, 1742.6277777777777, V
627695, 1743.5972222222222, N
627894, 1744.15, V
628206, 1745.0166666666667, N
628434, 1745.65, V
628611, 1746.1416666666667, V
628941, 1747.0583333333334, N
629130, 1747.5833333333333, V
629396, 1748.3222222222223, N
629603, 1748.8972222222221, N
629834, 1749.5388888888888, F
630057, 1750.1583333333333, V
630371, 1751.0305555555556, N
630583, 1751.6194444444445, V
630762, 1752.1166666666666, V
631125, 1753.125, N
631315, 1753.6527777777778, V
631629, 1754.525, N
631831, 1755.0861111111112, V
632022, 1755.6166666666666, V
632377, 1756.6027777777779, N
632580, 1757.1666666666667, V
632871, 1757.975, N
633093, 1758.5916666666667, N
633288, 1759.1333333333334, V
633474, 1759.65, V
633796, 1760.5444444444445, N
633977, 1761.0472222222222, V
634260, 1761.8333333333333, N
634496, 1762.4888888888888, N
634716, 1763.1, V
634937, 1763.713888888889, V
635254, 1764.5944444444444, N
635449, 1765.1361111111112, V
635717, 1765.8805555555555, N
635942, 1766.5055555555555, N
636133, 1767.036111111111, V
636335, 1767.5972222222222, V
636702, 1768.6166666666666, N
636900, 1769.1666666666667, V
637178, 1769.9388888888889, N
637417, 1770.6027777777779, N
637612, 1771.1444444444444, V
637829, 1771.7472222222223, V
638133, 1772.5916666666667, N
638319, 1773.1083333333333, V
638638, 1773.9944444444445, N
638860, 1774.611111111111, V
639131, 1775.3638888888888, N
639368, 1776.0222222222221, N
639573, 1776.5916666666667, V
639848, 1777.3555555555556, N
640079, 1777.9972222222223, N
640277, 1778.5472222222222, V
640467, 1779.075, V
640836, 1780.1, N
641037, 1780.6583333333333, V
641327, 1781.463888888889, N
641563, 1782.1194444444445, F
641732, 1782.588888888889, V
641912, 1783.088888888889, V
642070, 1783.5277777777778, N
642280, 1784.111111111111, N
642490, 1784.6944444444443, F
642598, 1784.9944444444445, +
642707, 1785.2972222222222, V
642998, 1786.1055555555556, N
643240, 1786.7777777777778, N
643453, 1787.3694444444445, V
643731, 1788.1416666666667, N
643969, 1788.8027777777777, N
644169, 1789.3583333333333, V
644455, 1790.1527777777778, N
644680, 1790.7777777777778, N
644876, 1791.3222222222223, V
645152, 1792.088888888889, N
645387, 1792.7416666666666, N
645611, 1793.3638888888888, V
645833, 1793.9805555555556, N
646067, 1794.6305555555555, N
646267, 1795.1861111111111, V
646539, 1795.9416666666666, N
646763, 1796.5638888888889, N
646967, 1797.1305555555555, V
647126, 1797.5722222222223, +
647285, 1798.013888888889, N
647513, 1798.6472222222221, F
647681, 1799.1138888888888, V
648034, 1800.0944444444444, N
648223, 1800.6194444444445, V
648521, 1801.4472222222223, N
648735, 1802.0416666666667, F
648894, 1802.4833333333333, V
649206, 1803.35, N
649411, 1803.9194444444445, V
649704, 1804.7333333333333, N
649935, 1805.375, N
