84, 0.23333333333333334, +
189, 0.525, N
425, 1.1805555555555556, N
659, 1.8305555555555555, N
889, 2.4694444444444446, N
1113, 3.091666666666667, N
1336, 3.7111111111111112, N
1553, 4.313888888888889, N
1773, 4.925, N
1999, 5.552777777777778, N
2236, 6.211111111111111, N
2476, 6.877777777777778, N
2705, 7.513888888888889, N
2934, 8.15, N
3164, 8.78888888888889, N
3389, 9.41388888888889, N
3618, 10.05, N
3844, 10.677777777777777, N
4060, 11.277777777777779, N
4292, 11.922222222222222, N
4528, 12.577777777777778, N
4767, 13.241666666666667, N
5009, 13.91388888888889, N
5246, 14.572222222222223, N
5479, 15.219444444444445, N
5701, 15.83611111111111, N
5927, 16.46388888888889, N
6145, 17.069444444444443, N
6375, 17.708333333333332, N
6620, 18.38888888888889, N
6864, 19.066666666666666, N
7105, 19.73611111111111, N
7340, 20.38888888888889, N
7570, 21.02777777777778, N
7802, 21.67222222222222, N
8039, 22.330555555555556, N
8261, 22.947222222222223, N
8492, 23.58888888888889, N
8726, 24.238888888888887, N
8966, 24.905555555555555, N
9203, 25.56388888888889, N
9430, 26.194444444444443, N
9666, 26.85, N
9905, 27.51388888888889, N
10137, 28.158333333333335, N
10373, 28.81388888888889, N
10599, 29.441666666666666, N
10843, 30.119444444444444, N
11099, 30.830555555555556, N
11352, 31.533333333333335, N
11594, 32.205555555555556, N
11829, 32.858333333333334, N
12066, 33.516666666666666, N
12302, 34.172222222222224, N
12528, 34.8, N
12757, 35.43611111111111, N
13005, 36.125, N
13246, 36.794444444444444, N
13487, 37.46388888888889, N
13719, 38.108333333333334, N
13952, 38.75555555555555, N
14186, 39.40555555555556, N
14412, 40.03333333333333, N
14638, 40.66111111111111, N
14848, 41.24444444444445, N
15075, 41.875, N
15316, 42.544444444444444, N
15552, 43.2, N
15780, 43.833333333333336, N
16018, 44.49444444444445, N
16246, 45.12777777777778, N
16472, 45.75555555555555, N
16690, 46.361111111111114, N
16910, 46.97222222222222, N
17145, 47.625, N
17380, 48.27777777777778, N
17617, 48.93611111111111, N
17847, 49.575, N
18075, 50.208333333333336, N
18302, 50.83888888888889, N
18522, 51.45, N
18748, 52.077777777777776, N
18973, 52.702777777777776, N
19148, 53.18888888888889, A
19404, 53.9, N
19639, 54.55277777777778, N
19873, 55.202777777777776, N
20107, 55.852777777777774, N
20334, 56.483333333333334, N
20558, 57.105555555555554, N
20780, 57.72222222222222, N
20996, 58.32222222222222, N
21211, 58.919444444444444, N
21432, 59.53333333333333, N
21666, 60.18333333333333, N
21911, 60.86388888888889, N
22158, 61.55, N
22388, 62.18888888888889, N
22617, 62.825, N
22838, 63.43888888888889, N
23064, 64.06666666666666, N
23291, 64.69722222222222, N
23502, 65.28333333333333, N
23730, 65.91666666666667, N
23958, 66.55, N
24169, 67.1361111111111, N
24417, 67.825, N
24641, 68.44722222222222, N
24871, 69.08611111111111, N
25096, 69.71111111111111, N
25313, 70.31388888888888, N
25496, 70.82222222222222, A
25736, 71.4888888888889, N
25968, 72.13333333333334, N
26207, 72.79722222222222, N
26443, 73.45277777777778, N
26671, 74.08611111111111, N
26891, 74.69722222222222, N
27116, 75.32222222222222, N
27338, 75.93888888888888, N
27553, 76.53611111111111, N
27762, 77.11666666666666, N
27985, 77.73611111111111, N
28218, 78.38333333333334, N
28451, 79.03055555555555, N
28678, 79.66111111111111, N
28902, 80.28333333333333, N
29131, 80.91944444444445, N
29357, 81.54722222222222, N
29574, 82.15, N
29784, 82.73333333333333, N
29999, 83.33055555555555, N
30223, 83.95277777777778, N
30457, 84.60277777777777, N
30691, 85.25277777777778, N
30922, 85.89444444444445, N
31154, 86.53888888888889, N
31383, 87.175, N
31611, 87.80833333333334, N
31834, 88.42777777777778, N
32057, 89.04722222222222, N
32300, 89.72222222222223, N
32545, 90.40277777777777, N
32788, 91.07777777777778, N
33028, 91.74444444444444, N
33260, 92.38888888888889, N
33493, 93.03611111111111, N
33720, 93.66666666666667, N
33920, 94.22222222222223, N
34170, 94.91666666666667, N
34389, 95.525, N
34621, 96.16944444444445, N
34856, 96.82222222222222, N
35097, 97.49166666666666, N
35332, 98.14444444444445, N
35558, 98.77222222222223, N
35782, 99.39444444444445, N
36001, 100.00277777777778, N
36170, 100.47222222222223, A
36407, 101.13055555555556, N
36641, 101.78055555555555, N
36877, 102.43611111111112, N
37116, 103.1, N
37341, 103.725, N
37572, 104.36666666666666, N
37794, 104.98333333333333, N
38016, 105.6, N
38243, 106.23055555555555, N
38461, 106.83611111111111, N
38675, 107.43055555555556, N
38897, 108.04722222222222, N
39129, 108.69166666666666, N
39364, 109.34444444444445, N
39586, 109.96111111111111, N
39811, 110.58611111111111, N
40039, 111.21944444444445, N
40258, 111.82777777777778, N
40477, 112.43611111111112, N
40684, 113.0111111111111, N
40907, 113.63055555555556, N
41142, 114.28333333333333, N
41377, 114.93611111111112, N
41610, 115.58333333333333, N
41833, 116.20277777777778, N
42057, 116.825, N
42276, 117.43333333333334, N
42451, 117.91944444444445, A
42709, 118.6361111111111, N
42931, 119.25277777777778, N
43171, 119.91944444444445, N
43415, 120.59722222222223, N
43642, 121.22777777777777, N
43887, 121.90833333333333, N
44122, 122.56111111111112, N
44357, 123.21388888888889, N
44581, 123.83611111111111, N
44803, 124.45277777777778, N
45014, 125.03888888888889, N
45238, 125.66111111111111, N
45467, 126.29722222222222, N
45702, 126.95, N
45936, 127.6, N
46165, 128.23611111111111, N
46387, 128.8527777777778, N
46607, 129.4638888888889, N
46827, 130.075, N
47050, 130.69444444444446, N
47269, 131.30277777777778, N
47498, 131.9388888888889, N
47738, 132.60555555555555, N
47968, 133.24444444444444, N
48198, 133.88333333333333, N
48427, 134.51944444444445, N
48656, 135.15555555555557, N
48883, 135.7861111111111, N
49110, 136.41666666666666, N
49324, 137.01111111111112, N
49552, 137.64444444444445, N
49781, 138.28055555555557, N
50017, 138.9361111111111, N
50258, 139.60555555555555, N
50486, 140.23888888888888, N
50715, 140.875, N
50936, 141.48888888888888, N
51161, 142.11388888888888, N
51385, 142.73611111111111, N
51597, 143.325, N
51835, 143.98611111111111, N
52080, 144.66666666666666, N
52318, 145.32777777777778, N
52553, 145.98055555555555, N
52779, 146.60833333333332, N
53006, 147.23888888888888, N
53231, 147.86388888888888, N
53410, 148.36111111111111, A
53650, 149.02777777777777, N
53870, 149.63888888888889, N
54094, 150.26111111111112, N
54184, 150.51111111111112, |
54320, 150.88888888888889, N
54547, 151.51944444444445, N
54772, 152.14444444444445, N
55000, 152.77777777777777, N
55228, 153.4111111111111, N
55447, 154.01944444444445, N
55667, 154.63055555555556, N
55876, 155.2111111111111, N
56106, 155.85, N
56218, 156.1611111111111, |
56346, 156.51666666666668, N
56577, 157.15833333333333, N
56745, 157.625, A
56985, 158.29166666666666, N
57214, 158.92777777777778, N
57435, 159.54166666666666, N
57651, 160.14166666666668, N
57863, 160.73055555555555, N
58087, 161.3527777777778, N
58317, 161.99166666666667, N
58550, 162.63888888888889, N
58782, 163.28333333333333, N
59011, 163.91944444444445, N
59237, 164.54722222222222, N
59467, 165.1861111111111, N
59689, 165.80277777777778, N
59909, 166.4138888888889, N
60120, 167.0, N
60344, 167.62222222222223, N
60580, 168.27777777777777, N
60817, 168.9361111111111, N
61055, 169.59722222222223, N
61290, 170.25, N
61515, 170.875, N
61739, 171.49722222222223, N
61962, 172.11666666666667, N
62192, 172.75555555555556, N
62422, 173.39444444444445, N
62662, 174.0611111111111, N
62907, 174.74166666666667, N
63148, 175.4111111111111, N
63384, 176.06666666666666, N
63622, 176.7277777777778, N
63860, 177.38888888888889, N
64096, 178.04444444444445, N
64330, 178.69444444444446, N
64548, 179.3, N
64782, 179.95, N
65018, 180.60555555555555, N
65256, 181.26666666666668, N
65499, 181.94166666666666, N
65728, 182.57777777777778, N
65955, 183.20833333333334, N
66174, 183.81666666666666, N
66396, 184.43333333333334, N
66613, 185.0361111111111, N
66840, 185.66666666666666, N
67080, 186.33333333333334, N
67324, 187.01111111111112, N
67554, 187.65, N
67781, 188.28055555555557, N
68010, 188.91666666666666, N
68240, 189.55555555555554, N
68469, 190.19166666666666, N
68690, 190.80555555555554, N
68908, 191.4111111111111, N
69135, 192.04166666666666, N
69367, 192.6861111111111, N
69556, 193.2111111111111, A
69816, 193.93333333333334, N
70045, 194.56944444444446, N
70277, 195.2138888888889, N
70496, 195.82222222222222, N
70712, 196.42222222222222, N
70920, 197.0, N
71147, 197.63055555555556, N
71392, 198.3111111111111, N
71635, 198.98611111111111, N
71876, 199.65555555555557, N
72104, 200.2888888888889, N
72338, 200.9388888888889, N
72569, 201.58055555555555, N
72792, 202.2, N
73021, 202.8361111111111, N
73246, 203.4611111111111, N
73478, 204.10555555555555, N
73717, 204.76944444444445, N
73949, 205.4138888888889, N
74181, 206.05833333333334, N
74413, 206.70277777777778, N
74641, 207.3361111111111, N
74870, 207.97222222222223, N
75088, 208.57777777777778, N
75298, 209.1611111111111, N
75531, 209.80833333333334, N
75767, 210.4638888888889, N
76007, 211.13055555555556, N
76250, 211.80555555555554, N
76481, 212.44722222222222, N
76716, 213.1, N
76938, 213.71666666666667, N
77163, 214.34166666666667, N
77392, 214.9777777777778, N
77612, 215.5888888888889, N
77847, 216.24166666666667, N
78078, 216.88333333333333, N
78313, 217.5361111111111, N
78546, 218.18333333333334, N
78769, 218.80277777777778, N
78993, 219.425, N
79215, 220.04166666666666, N
79426, 220.62777777777777, N
79633, 221.20277777777778, N
79848, 221.8, N
80075, 222.43055555555554, N
80305, 223.06944444444446, N
80531, 223.69722222222222, N
80747, 224.29722222222222, N
80963, 224.8972222222222, N
81175, 225.48611111111111, N
81387, 226.075, N
81602, 226.67222222222222, N
81808, 227.24444444444444, N
82030, 227.86111111111111, N
82265, 228.51388888888889, N
82492, 229.14444444444445, N
82718, 229.7722222222222, N
82932, 230.36666666666667, N
83150, 230.97222222222223, N
83369, 231.58055555555555, N
83582, 232.17222222222222, N
83793, 232.75833333333333, N
83992, 233.3111111111111, N
84213, 233.925, N
84441, 234.55833333333334, N
84663, 235.175, N
84891, 235.80833333333334, N
85112, 236.42222222222222, N
85335, 237.04166666666666, N
85547, 237.63055555555556, N
85748, 238.1888888888889, N
85970, 238.80555555555554, N
86182, 239.39444444444445, N
86413, 240.0361111111111, N
86643, 240.675, N
86875, 241.31944444444446, N
87092, 241.92222222222222, N
87309, 242.525, N
87530, 243.13888888888889, N
87744, 243.73333333333332, N
87962, 244.3388888888889, N
88180, 244.94444444444446, N
88393, 245.5361111111111, N
88618, 246.1611111111111, N
88843, 246.7861111111111, N
89069, 247.4138888888889, N
89298, 248.05, N
89436, 248.43333333333334, ~
89521, 248.66944444444445, N
89736, 249.26666666666668, N
89950, 249.86111111111111, N
90162, 250.45, N
90365, 251.01388888888889, N
90577, 251.6027777777778, N
90793, 252.20277777777778, N
91018, 252.82777777777778, N
91239, 253.44166666666666, N
91451, 254.03055555555557, N
91660, 254.61111111111111, N
91867, 255.1861111111111, N
92073, 255.75833333333333, N
92278, 256.3277777777778, N
92487, 256.90833333333336, N
92683, 257.4527777777778, N
92894, 258.0388888888889, N
93045, 258.4583333333333, A
93285, 259.125, N
93502, 259.72777777777776, N
93705, 260.2916666666667, N
93785, 260.5138888888889, ~
93914, 260.8722222222222, N
94118, 261.43888888888887, N
94325, 262.0138888888889, N
94525, 262.56944444444446, N
94717, 263.10277777777776, N
94916, 263.65555555555557, N
95088, 264.1333333333333, A
95331, 264.80833333333334, N
95549, 265.4138888888889, N
95753, 265.98055555555555, N
95957, 266.5472222222222, N
96121, 267.0027777777778, A
96344, 267.6222222222222, N
96540, 268.1666666666667, N
96733, 268.7027777777778, N
96925, 269.2361111111111, N
97127, 269.7972222222222, N
97339, 270.3861111111111, N
97544, 270.9555555555556, N
97752, 271.53333333333336, N
97949, 272.0805555555556, N
98147, 272.63055555555553, N
98349, 273.19166666666666, N
98552, 273.75555555555553, N
98746, 274.2944444444444, N
98940, 274.8333333333333, N
99121, 275.3361111111111, N
99324, 275.9, N
99531, 276.475, N
99737, 277.0472222222222, N
99941, 277.6138888888889, N
100142, 278.1722222222222, N
100347, 278.7416666666667, N
100542, 279.28333333333336, N
100738, 279.8277777777778, N
100927, 280.35277777777776, N
101117, 280.88055555555553, N
101306, 281.40555555555557, N
101510, 281.97222222222223, N
101711, 282.53055555555557, N
101915, 283.09722222222223, N
102112, 283.64444444444445, N
102308, 284.18888888888887, N
102500, 284.72222222222223, N
102697, 285.26944444444445, N
102885, 285.7916666666667, N
103078, 286.3277777777778, N
103269, 286.85833333333335, N
103455, 287.375, N
103651, 287.9194444444444, N
103844, 288.4555555555556, N
104050, 289.02777777777777, N
104255, 289.59722222222223, N
104457, 290.15833333333336, N
104658, 290.71666666666664, N
104853, 291.2583333333333, N
105045, 291.7916666666667, N
105233, 292.31388888888887, N
105425, 292.84722222222223, N
105611, 293.3638888888889, N
105807, 293.90833333333336, N
106011, 294.475, N
106216, 295.0444444444444, N
106425, 295.625, N
106618, 296.1611111111111, N
106815, 296.7083333333333, N
107007, 297.2416666666667, N
107198, 297.77222222222224, N
107341, 298.1694444444444, A
107546, 298.7388888888889, N
107737, 299.26944444444445, N
107942, 299.8388888888889, N
108142, 300.39444444444445, N
108342, 300.95, N
108537, 301.4916666666667, N
108741, 302.05833333333334, N
108933, 302.59166666666664, N
109131, 303.14166666666665, N
109322, 303.6722222222222, N
109514, 304.2055555555556, N
109702, 304.72777777777776, N
109881, 305.225, N
110021, 305.6138888888889, A
110231, 306.1972222222222, N
110444, 306.7888888888889, N
110657, 307.38055555555553, N
110853, 307.925, N
111045, 308.4583333333333, N
111236, 308.9888888888889, N
111428, 309.52222222222224, N
111619, 310.0527777777778, N
111807, 310.575, N
111990, 311.0833333333333, N
112185, 311.625, N
112390, 312.19444444444446, N
112541, 312.6138888888889, A
112749, 313.19166666666666, N
112954, 313.7611111111111, N
113149, 314.3027777777778, N
113347, 314.85277777777776, N
113545, 315.40277777777777, N
113736, 315.93333333333334, N
113929, 316.46944444444443, N
114112, 316.97777777777776, N
114298, 317.49444444444447, N
114495, 318.0416666666667, N
114700, 318.6111111111111, N
114901, 319.1694444444444, N
115107, 319.7416666666667, N
115305, 320.2916666666667, N
115507, 320.85277777777776, N
115704, 321.4, N
115900, 321.94444444444446, N
116090, 322.47222222222223, N
116281, 323.0027777777778, N
116484, 323.56666666666666, N
116692, 324.14444444444445, N
116902, 324.72777777777776, N
117108, 325.3, N
117317, 325.88055555555553, N
117517, 326.43611111111113, N
117722, 327.00555555555553, N
117921, 327.55833333333334, N
118090, 328.02777777777777, A
118322, 328.6722222222222, N
118516, 329.2111111111111, N
118719, 329.775, N
118927, 330.35277777777776, N
119138, 330.93888888888887, N
119351, 331.53055555555557, N
119565, 332.125, N
119770, 332.69444444444446, N
119976, 333.26666666666665, N
120168, 333.8, N
120364, 334.34444444444443, N
120565, 334.90277777777777, N
120759, 335.44166666666666, N
120969, 336.025, N
121177, 336.60277777777776, N
121392, 337.2, N
121597, 337.76944444444445, N
121796, 338.3222222222222, N
121992, 338.8666666666667, N
122188, 339.4111111111111, N
122251, 339.5861111111111, ~
122332, 339.81111111111113, A
122569, 340.46944444444443, N
122761, 341.0027777777778, N
122954, 341.5388888888889, N
123150, 342.0833333333333, N
123361, 342.6694444444444, N
123568, 343.24444444444447, N
123771, 343.80833333333334, N
123972, 344.3666666666667, N
124130, 344.80555555555554, A
124365, 345.4583333333333, N
124561, 346.0027777777778, N
124756, 346.5444444444444, N
124942, 347.06111111111113, N
125086, 347.4611111111111, A
125303, 348.06388888888887, N
125518, 348.6611111111111, N
125723, 349.23055555555555, N
125928, 349.8, N
126077, 350.2138888888889, A
126284, 350.7888888888889, N
126485, 351.34722222222223, N
126683, 351.89722222222224, N
126873, 352.425, N
127067, 352.9638888888889, N
127260, 353.5, N
127467, 354.075, N
127671, 354.64166666666665, N
127845, 355.125, N
128068, 355.74444444444447, N
128268, 356.3, N
128471, 356.8638888888889, N
128670, 357.4166666666667, N
128805, 357.7916666666667, A
129033, 358.425, N
129224, 358.9555555555556, N
129409, 359.46944444444443, N
129612, 360.03333333333336, N
129814, 360.59444444444443, N
130026, 361.18333333333334, N
130235, 361.7638888888889, N
130437, 362.325, N
130594, 362.7611111111111, A
130820, 363.3888888888889, N
131014, 363.9277777777778, N
131206, 364.4611111111111, N
131397, 364.9916666666667, N
131595, 365.5416666666667, N
131797, 366.10277777777776, N
132006, 366.68333333333334, N
132203, 367.23055555555555, N
132406, 367.7944444444444, N
132600, 368.3333333333333, N
132797, 368.88055555555553, N
132957, 369.325, A
133181, 369.9472222222222, N
133379, 370.4972222222222, N
133567, 371.01944444444445, N
133762, 371.56111111111113, N
133963, 372.11944444444447, N
134170, 372.69444444444446, N
134380, 373.27777777777777, N
134579, 373.8305555555556, N
134787, 374.40833333333336, N
134991, 374.975, N
135183, 375.5083333333333, N
135378, 376.05, N
135537, 376.4916666666667, A
135752, 377.0888888888889, N
135952, 377.64444444444445, N
136160, 378.22222222222223, N
136370, 378.80555555555554, N
136576, 379.3777777777778, N
136780, 379.94444444444446, N
136977, 380.4916666666667, N
137171, 381.03055555555557, N
137366, 381.5722222222222, N
137566, 382.1277777777778, N
137758, 382.6611111111111, N
137906, 383.0722222222222, A
138129, 383.69166666666666, N
138331, 384.2527777777778, N
138535, 384.81944444444446, N
138740, 385.3888888888889, N
138888, 385.8, A
139102, 386.39444444444445, N
139306, 386.9611111111111, N
139508, 387.52222222222224, N
139699, 388.0527777777778, N
139890, 388.5833333333333, N
140069, 389.0805555555556, N
140263, 389.61944444444447, N
140459, 390.1638888888889, N
140673, 390.7583333333333, N
140872, 391.31111111111113, N
141075, 391.875, N
141262, 392.39444444444445, N
141428, 392.85555555555555, A
141643, 393.4527777777778, N
141837, 393.9916666666667, N
142030, 394.52777777777777, N
142126, 394.7944444444444, ~
142217, 395.0472222222222, N
142373, 395.48055555555555, A
142608, 396.1333333333333, N
142820, 396.72222222222223, N
143024, 397.2888888888889, N
143226, 397.85, N
143428, 398.4111111111111, N
143638, 398.99444444444447, N
143835, 399.5416666666667, N
144019, 400.0527777777778, N
144225, 400.625, N
144414, 401.15, N
144615, 401.7083333333333, N
144824, 402.2888888888889, N
145031, 402.8638888888889, N
145244, 403.4555555555556, N
145456, 404.0444444444444, N
145658, 404.60555555555555, N
145860, 405.1666666666667, N
146059, 405.71944444444443, N
146260, 406.27777777777777, N
146464, 406.84444444444443, N
146666, 407.40555555555557, N
146879, 407.9972222222222, N
147104, 408.6222222222222, N
147319, 409.21944444444443, N
147537, 409.825, N
147753, 410.425, N
147966, 411.01666666666665, N
148123, 411.4527777777778, A
148380, 412.1666666666667, N
148600, 412.77777777777777, N
148804, 413.34444444444443, N
149021, 413.9472222222222, N
149238, 414.55, N
149464, 415.1777777777778, N
149692, 415.81111111111113, N
149905, 416.40277777777777, N
150122, 417.00555555555553, N
150285, 417.4583333333333, A
150528, 418.1333333333333, N
150741, 418.725, N
150940, 419.27777777777777, N
151162, 419.89444444444445, N
151387, 420.51944444444445, N
151617, 421.15833333333336, N
151724, 421.4555555555556, +
151769, 421.5805555555556, A
151902, 421.95, A
152034, 422.31666666666666, A
152165, 422.68055555555554, A
152301, 423.05833333333334, A
152435, 423.43055555555554, A
152569, 423.8027777777778, A
152703, 424.175, A
152835, 424.5416666666667, A
152967, 424.90833333333336, A
153097, 425.26944444444445, A
153229, 425.6361111111111, A
153369, 426.025, A
153510, 426.4166666666667, A
153652, 426.81111111111113, A
153797, 427.2138888888889, A
153934, 427.59444444444443, A
154072, 427.97777777777776, A
154205, 428.34722222222223, A
154347, 428.7416666666667, +
154425, 428.9583333333333, N
154644, 429.56666666666666, N
154852, 430.14444444444445, N
155054, 430.7055555555556, N
155250, 431.25, N
155466, 431.85, N
155694, 432.48333333333335, N
155853, 432.925, A
155984, 433.2888888888889, A
156201, 433.89166666666665, N
156421, 434.5027777777778, N
156638, 435.10555555555555, N
156853, 435.7027777777778, N
157073, 436.31388888888887, N
157293, 436.925, N
157513, 437.5361111111111, N
157741, 438.1694444444444, N
157981, 438.8361111111111, N
158222, 439.50555555555553, N
158458, 440.1611111111111, N
158695, 440.81944444444446, N
158923, 441.4527777777778, N
159125, 442.0138888888889, N
159368, 442.68888888888887, N
159581, 443.28055555555557, N
159815, 443.93055555555554, N
160053, 444.59166666666664, N
160291, 445.2527777777778, N
160532, 445.9222222222222, N
160755, 446.5416666666667, N
160980, 447.1666666666667, N
161204, 447.7888888888889, N
161432, 448.4222222222222, N
161657, 449.0472222222222, N
161882, 449.6722222222222, N
162118, 450.3277777777778, N
162345, 450.9583333333333, N
162595, 451.65277777777777, N
162828, 452.3, N
163063, 452.9527777777778, N
163299, 453.60833333333335, N
163534, 454.2611111111111, N
163759, 454.8861111111111, N
163980, 455.5, N
164214, 456.15, N
164462, 456.8388888888889, N
164712, 457.53333333333336, N
164950, 458.19444444444446, N
165184, 458.84444444444443, N
165415, 459.4861111111111, N
165643, 460.11944444444447, N
165870, 460.75, N
166092, 461.3666666666667, N
166330, 462.02777777777777, N
166576, 462.7111111111111, N
166816, 463.3777777777778, N
167048, 464.02222222222224, N
167278, 464.6611111111111, N
167516, 465.3222222222222, N
167706, 465.85, A
167976, 466.6, N
168196, 467.2111111111111, N
168436, 467.8777777777778, N
168677, 468.5472222222222, N
168915, 469.2083333333333, N
169157, 469.88055555555553, N
169388, 470.52222222222224, N
169616, 471.15555555555557, N
169850, 471.80555555555554, N
170076, 472.43333333333334, N
170295, 473.0416666666667, N
170531, 473.6972222222222, N
170781, 474.39166666666665, N
171027, 475.075, N
171259, 475.71944444444443, N
171488, 476.35555555555555, N
171723, 477.0083333333333, N
171948, 477.6333333333333, N
172175, 478.2638888888889, N
172404, 478.9, N
172624, 479.5111111111111, N
172861, 480.1694444444444, N
173098, 480.8277777777778, N
173340, 481.5, N
173578, 482.1611111111111, N
173812, 482.81111111111113, N
173984, 483.2888888888889, A
174247, 484.01944444444445, N
174482, 484.6722222222222, N
174699, 485.275, N
174929, 485.9138888888889, N
175169, 486.5805555555556, N
175407, 487.2416666666667, N
175643, 487.89722222222224, N
175873, 488.5361111111111, N
176099, 489.1638888888889, N
176282, 489.6722222222222, A
176545, 490.40277777777777, N
176774, 491.0388888888889, N
176999, 491.6638888888889, N
177225, 492.2916666666667, N
177465, 492.9583333333333, N
177701, 493.6138888888889, N
177928, 494.24444444444447, N
178159, 494.8861111111111, N
178387, 495.51944444444445, N
178619, 496.1638888888889, N
178845, 496.7916666666667, N
179062, 497.39444444444445, N
179299, 498.0527777777778, N
179546, 498.7388888888889, N
179792, 499.4222222222222, N
180029, 500.0805555555556, N
180257, 500.7138888888889, N
180483, 501.34166666666664, N
180704, 501.9555555555556, N
180896, 502.4888888888889, N
181136, 503.15555555555557, N
181364, 503.7888888888889, N
181598, 504.43888888888887, N
181826, 505.0722222222222, N
182054, 505.7055555555556, N
182279, 506.3305555555556, N
182515, 506.9861111111111, N
182684, 507.4555555555556, A
182825, 507.84722222222223, A
183030, 508.4166666666667, N
183300, 509.1666666666667, N
183540, 509.8333333333333, N
183781, 510.5027777777778, N
184015, 511.15277777777777, N
184252, 511.81111111111113, N
184479, 512.4416666666667, N
184704, 513.0666666666667, N
184927, 513.6861111111111, N
185144, 514.2888888888889, N
185361, 514.8916666666667, N
185555, 515.4305555555555, A
185811, 516.1416666666667, N
186050, 516.8055555555555, N
186283, 517.4527777777778, N
186513, 518.0916666666667, N
186717, 518.6583333333333, A
186970, 519.3611111111111, N
187201, 520.0027777777777, N
187430, 520.6388888888889, N
187654, 521.2611111111111, N
187833, 521.7583333333333, A
188116, 522.5444444444445, N
188353, 523.2027777777778, N
188595, 523.875, N
188829, 524.525, N
189057, 525.1583333333333, N
189280, 525.7777777777778, N
189504, 526.4, N
189726, 527.0166666666667, N
189946, 527.6277777777777, N
190182, 528.2833333333333, N
190423, 528.9527777777778, N
190664, 529.6222222222223, N
190890, 530.25, N
191117, 530.8805555555556, N
191343, 531.5083333333333, N
191570, 532.1388888888889, N
191803, 532.7861111111112, N
192027, 533.4083333333333, N
192264, 534.0666666666667, N
192503, 534.7305555555556, N
192743, 535.3972222222222, N
192983, 536.0638888888889, N
193218, 536.7166666666667, N
193452, 537.3666666666667, N
193685, 538.0138888888889, N
193913, 538.6472222222222, N
194128, 539.2444444444444, N
194358, 539.8833333333333, N
194605, 540.5694444444445, N
194849, 541.2472222222223, N
195083, 541.8972222222222, N
195315, 542.5416666666666, N
195546, 543.1833333333333, N
195753, 543.7583333333333, N
195991, 544.4194444444445, N
196216, 545.0444444444445, N
196440, 545.6666666666666, N
196676, 546.3222222222222, N
196914, 546.9833333333333, N
197150, 547.6388888888889, N
197377, 548.2694444444444, N
197609, 548.9138888888889, N
197842, 549.5611111111111, N
198067, 550.1861111111111, N
198289, 550.8027777777778, N
198503, 551.3972222222222, N
198736, 552.0444444444445, N
198952, 552.6444444444444, A
199218, 553.3833333333333, N
199460, 554.0555555555555, N
199699, 554.7194444444444, N
199932, 555.3666666666667, N
200042, 555.6722222222222, +
200081, 555.7805555555556, A
200210, 556.1388888888889, A
200350, 556.5277777777778, A
200506, 556.9611111111111, A
200704, 557.5111111111111, A
200873, 557.9805555555556, A
201014, 558.3722222222223, A
201159, 558.775, A
201299, 559.1638888888889, A
201440, 559.5555555555555, A
201582, 559.95, A
201715, 560.3194444444445, A
201855, 560.7083333333334, A
201987, 561.075, A
202125, 561.4583333333334, A
202262, 561.8388888888888, A
202397, 562.2138888888888, A
202536, 562.6, A
202672, 562.9777777777778, A
202799, 563.3305555555555, A
202936, 563.7111111111111, A
203072, 564.0888888888888, A
203209, 564.4694444444444, A
203350, 564.8611111111111, A
203492, 565.2555555555556, A
203633, 565.6472222222222, A
203778, 566.05, A
203914, 566.4277777777778, A
204053, 566.8138888888889, A
204190, 567.1944444444445, A
204320, 567.5555555555555, A
204452, 567.9222222222222, A
204583, 568.2861111111112, A
204711, 568.6416666666667, A
204841, 569.0027777777777, A
204962, 569.3388888888888, A
205097, 569.7138888888888, A
205235, 570.0972222222222, A
205375, 570.4861111111111, A
205519, 570.8861111111111, A
205659, 571.275, A
205797, 571.6583333333333, A
205936, 572.0444444444445, A
206068, 572.4111111111112, A
206200, 572.7777777777778, A
206334, 573.15, A
206468, 573.5222222222222, A
206602, 573.8944444444444, A
206735, 574.2638888888889, A
206865, 574.625, A
206995, 574.9861111111111, A
207123, 575.3416666666667, A
207256, 575.7111111111111, A
207395, 576.0972222222222, A
207536, 576.4888888888889, A
207674, 576.8722222222223, A
207816, 577.2666666666667, A
207949, 577.6361111111111, A
208086, 578.0166666666667, A
208222, 578.3944444444444, A
208358, 578.7722222222222, A
208497, 579.1583333333333, A
208630, 579.5277777777778, A
208763, 579.8972222222222, A
208896, 580.2666666666667, A
209031, 580.6416666666667, A
209159, 580.9972222222223, A
209285, 581.3472222222222, A
209420, 581.7222222222222, A
209561, 582.1138888888889, A
209705, 582.5138888888889, A
209844, 582.9, A
209990, 583.3055555555555, A
210180, 583.8333333333334, A
210347, 584.2972222222222, +
210399, 584.4416666666667, N
210612, 585.0333333333333, N
210831, 585.6416666666667, N
211041, 586.225, N
211261, 586.8361111111111, N
211484, 587.4555555555555, N
211722, 588.1166666666667, N
211968, 588.8, N
212214, 589.4833333333333, N
212462, 590.1722222222222, N
212712, 590.8666666666667, N
212949, 591.525, N
213186, 592.1833333333333, N
213413, 592.8138888888889, N
213629, 593.4138888888889, N
213802, 593.8944444444444, A
214084, 594.6777777777778, N
214328, 595.3555555555556, N
214567, 596.0194444444444, N
214790, 596.6388888888889, N
215016, 597.2666666666667, N
215235, 597.875, N
215455, 598.4861111111111, N
215675, 599.0972222222222, N
215793, 599.425, +
215830, 599.5277777777778, A
215964, 599.9, A
216106, 600.2944444444445, A
216244, 600.6777777777778, A
216379, 601.0527777777778, A
216519, 601.4416666666667, A
216658, 601.8277777777778, A
216796, 602.2111111111111, A
216934, 602.5944444444444, A
217072, 602.9777777777778, A
217212, 603.3666666666667, A
217349, 603.7472222222223, A
217486, 604.1277777777777, A
217626, 604.5166666666667, A
217760, 604.8888888888889, A
217890, 605.25, A
218028, 605.6333333333333, A
218167, 606.0194444444444, A
218307, 606.4083333333333, A
218448, 606.8, A
218584, 607.1777777777778, A
218726, 607.5722222222222, A
218863, 607.9527777777778, A
218995, 608.3194444444445, A
219135, 608.7083333333334, A
219269, 609.0805555555555, A
219405, 609.4583333333334, A
219538, 609.8277777777778, A
219668, 610.1888888888889, A
219801, 610.5583333333333, A
219930, 610.9166666666666, A
220051, 611.2527777777777, A
220186, 611.6277777777777, A
220323, 612.0083333333333, A
220462, 612.3944444444444, A
220606, 612.7944444444445, A
220744, 613.1777777777778, A
220883, 613.5638888888889, A
221024, 613.9555555555555, A
221153, 614.3138888888889, A
221282, 614.6722222222222, A
221413, 615.0361111111112, A
221545, 615.4027777777778, A
221679, 615.775, A
221812, 616.1444444444444, A
221941, 616.5027777777777, A
222071, 616.8638888888889, A
222193, 617.2027777777778, A
222321, 617.5583333333333, A
222463, 617.9527777777778, A
222597, 618.325, A
222735, 618.7083333333334, A
222878, 619.1055555555556, A
223013, 619.4805555555556, A
223152, 619.8666666666667, A
223290, 620.25, A
223428, 620.6333333333333, A
223570, 621.0277777777778, A
223746, 621.5166666666667, N
223855, 621.8194444444445, +
223942, 622.0611111111111, N
224137, 622.6027777777778, N
224324, 623.1222222222223, N
224524, 623.6777777777778, N
224743, 624.2861111111112, N
224971, 624.9194444444445, N
225215, 625.5972222222222, N
225454, 626.2611111111111, N
225700, 626.9444444444445, N
225954, 627.65, N
226201, 628.3361111111111, N
226446, 629.0166666666667, N
226693, 629.7027777777778, N
226943, 630.3972222222222, N
227194, 631.0944444444444, N
227441, 631.7805555555556, N
227685, 632.4583333333334, N
227923, 633.1194444444444, N
228150, 633.75, N
228370, 634.3611111111111, N
228596, 634.9888888888889, N
228814, 635.5944444444444, N
229045, 636.2361111111111, N
229283, 636.8972222222222, N
229457, 637.3805555555556, A
229737, 638.1583333333333, N
229964, 638.7888888888889, N
230187, 639.4083333333333, N
230405, 640.0138888888889, N
230624, 640.6222222222223, N
230839, 641.2194444444444, N
231065, 641.8472222222222, N
231299, 642.4972222222223, N
231525, 643.125, N
231751, 643.7527777777777, N
231979, 644.3861111111111, N
232198, 644.9944444444444, N
232423, 645.6194444444444, N
232606, 646.1277777777777, A
232856, 646.8222222222222, N
233070, 647.4166666666666, N
233292, 648.0333333333333, N
233525, 648.6805555555555, N
233740, 649.2777777777778, N
233991, 649.975, N
234212, 650.5888888888888, N
234431, 651.1972222222222, N
234648, 651.8, N
234817, 652.2694444444444, A
235061, 652.9472222222222, N
235282, 653.5611111111111, N
235520, 654.2222222222222, N
235761, 654.8916666666667, N
235994, 655.5388888888889, N
236222, 656.1722222222222, N
236444, 656.7888888888889, N
236670, 657.4166666666666, N
236894, 658.0388888888889, N
237112, 658.6444444444444, N
237325, 659.2361111111111, N
237548, 659.8555555555556, N
237782, 660.5055555555556, N
237997, 661.1027777777778, N
238247, 661.7972222222222, N
238474, 662.4277777777778, N
238707, 663.075, N
238925, 663.6805555555555, N
239108, 664.1888888888889, A
239355, 664.875, N
239573, 665.4805555555556, N
239808, 666.1333333333333, N
240039, 666.775, N
240232, 667.3111111111111, A
240490, 668.0277777777778, N
240712, 668.6444444444444, N
240941, 669.2805555555556, N
241162, 669.8944444444444, N
241385, 670.5138888888889, N
241599, 671.1083333333333, N
241812, 671.7, N
242038, 672.3277777777778, N
242259, 672.9416666666667, N
242482, 673.5611111111111, N
242705, 674.1805555555555, N
242927, 674.7972222222222, N
243141, 675.3916666666667, N
243354, 675.9833333333333, N
243567, 676.575, N
243773, 677.1472222222222, N
243992, 677.7555555555556, N
244217, 678.3805555555556, N
244448, 679.0222222222222, N
244684, 679.6777777777778, N
244907, 680.2972222222222, N
245128, 680.9111111111112, N
245344, 681.5111111111111, N
245566, 682.1277777777777, N
245791, 682.7527777777777, N
246002, 683.3388888888888, N
246229, 683.9694444444444, N
246441, 684.5583333333333, N
246687, 685.2416666666667, N
246918, 685.8833333333333, N
247137, 686.4916666666667, N
247363, 687.1194444444444, N
247586, 687.7388888888889, N
247802, 688.3388888888888, N
248020, 688.9444444444445, N
248229, 689.525, N
248457, 690.1583333333333, N
248694, 690.8166666666667, N
248930, 691.4722222222222, N
249160, 692.1111111111111, N
249377, 692.7138888888888, N
249597, 693.325, N
249820, 693.9444444444445, N
250035, 694.5416666666666, N
250247, 695.1305555555556, N
250469, 695.7472222222223, N
250703, 696.3972222222222, N
250933, 697.0361111111112, N
251158, 697.6611111111112, N
251380, 698.2777777777778, N
251608, 698.9111111111112, N
251836, 699.5444444444445, N
252052, 700.1444444444444, N
252271, 700.7527777777777, N
252482, 701.3388888888888, N
252697, 701.9361111111111, N
252940, 702.6111111111111, N
253171, 703.2527777777777, N
253406, 703.9055555555556, N
253633, 704.5361111111112, N
253856, 705.1555555555556, N
254077, 705.7694444444444, N
254290, 706.3611111111111, N
254509, 706.9694444444444, N
254687, 707.4638888888888, A
254949, 708.1916666666667, N
255188, 708.8555555555556, N
255413, 709.4805555555556, N
255638, 710.1055555555556, N
255828, 710.6333333333333, A
256073, 711.3138888888889, N
256296, 711.9333333333333, N
256517, 712.5472222222222, N
256731, 713.1416666666667, N
256896, 713.6, A
257152, 714.3111111111111, N
257390, 714.9722222222222, N
257629, 715.6361111111111, N
257861, 716.2805555555556, N
258083, 716.8972222222222, N
258308, 717.5222222222222, N
258525, 718.125, N
258742, 718.7277777777778, N
258955, 719.3194444444445, N
259181, 719.9472222222222, N
259417, 720.6027777777778, N
259652, 721.2555555555556, N
259881, 721.8916666666667, N
260106, 722.5166666666667, N
260330, 723.1388888888889, N
260554, 723.7611111111111, N
260784, 724.4, N
261006, 725.0166666666667, N
261225, 725.625, N
261455, 726.2638888888889, N
261694, 726.9277777777778, N
261933, 727.5916666666667, N
262160, 728.2222222222222, N
262389, 728.8583333333333, N
262620, 729.5, N
262845, 730.125, N
263046, 730.6833333333333, N
263279, 731.3305555555555, N
263514, 731.9833333333333, N
263755, 732.6527777777778, N
263994, 733.3166666666667, N
264111, 733.6416666666667, +
264161, 733.7805555555556, A
264307, 734.1861111111111, A
264502, 734.7277777777778, A
264672, 735.2, A
264806, 735.5722222222222, A
264945, 735.9583333333334, A
265076, 736.3222222222222, A
265211, 736.6972222222222, A
265344, 737.0666666666667, A
265473, 737.425, A
265615, 737.8194444444445, A
265758, 738.2166666666667, A
265900, 738.6111111111111, A
266045, 739.0138888888889, A
266188, 739.4111111111112, A
266328, 739.8, A
266467, 740.1861111111111, A
266606, 740.5722222222222, A
266747, 740.9638888888888, A
266891, 741.3638888888889, A
267025, 741.7361111111111, A
267158, 742.1055555555556, A
267292, 742.4777777777778, A
267423, 742.8416666666667, A
267547, 743.1861111111111, A
267680, 743.5555555555555, A
267817, 743.9361111111111, A
267956, 744.3222222222222, A
268092, 744.7, A
268229, 745.0805555555555, A
268371, 745.475, A
268508, 745.8555555555556, A
268644, 746.2333333333333, A
268780, 746.6111111111111, A
268911, 746.975, A
269043, 747.3416666666667, A
269174, 747.7055555555555, A
269302, 748.0611111111111, A
269432, 748.4222222222222, A
269558, 748.7722222222222, A
269683, 749.1194444444444, +
269758, 749.3277777777778, N
269970, 749.9166666666666, N
270181, 750.5027777777777, N
270387, 751.075, N
270588, 751.6333333333333, N
270788, 752.1888888888889, N
270875, 752.4305555555555, ~
270989, 752.7472222222223, N
271185, 753.2916666666666, N
271385, 753.8472222222222, N
271583, 754.3972222222222, N
271791, 754.975, N
271916, 755.3222222222222, A
272187, 756.075, N
272412, 756.7, N
272650, 757.3611111111111, N
272889, 758.025, N
273112, 758.6444444444444, N
273338, 759.2722222222222, N
273552, 759.8666666666667, N
273769, 760.4694444444444, N
273985, 761.0694444444445, N
274191, 761.6416666666667, N
274421, 762.2805555555556, N
274650, 762.9166666666666, N
274876, 763.5444444444445, N
275093, 764.1472222222222, N
275306, 764.7388888888889, N
275515, 765.3194444444445, N
275709, 765.8583333333333, N
275936, 766.4888888888889, N
276143, 767.0638888888889, N
276346, 767.6277777777777, N
276553, 768.2027777777778, N
276767, 768.7972222222222, N
276986, 769.4055555555556, N
277199, 769.9972222222223, N
277408, 770.5777777777778, N
277617, 771.1583333333333, N
277829, 771.7472222222223, N
278030, 772.3055555555555, N
278231, 772.8638888888889, N
278424, 773.4, N
278638, 773.9944444444444, N
278863, 774.6194444444444, N
279079, 775.2194444444444, N
279232, 775.6444444444444, A
279480, 776.3333333333334, N
279693, 776.925, N
279900, 777.5, N
280111, 778.0861111111111, N
280272, 778.5333333333333, A
280502, 779.1722222222222, N
280726, 779.7944444444445, N
280961, 780.4472222222222, N
281035, 780.6527777777778, ~
281202, 781.1166666666667, N
281437, 781.7694444444444, N
281669, 782.4138888888889, N
281910, 783.0833333333334, N
282126, 783.6833333333333, V
282364, 784.3444444444444, N
282588, 784.9666666666667, N
282807, 785.575, N
283042, 786.2277777777778, N
283274, 786.8722222222223, N
283507, 787.5194444444444, N
283741, 788.1694444444445, N
283969, 788.8027777777778, N
284196, 789.4333333333333, N
284415, 790.0416666666666, N
284640, 790.6666666666666, N
284859, 791.275, N
285014, 791.7055555555555, A
285226, 792.2944444444445, N
285337, 792.6027777777778, +
285400, 792.7777777777778, A
285547, 793.1861111111111, A
285693, 793.5916666666667, A
285835, 793.9861111111111, A
285972, 794.3666666666667, A
286111, 794.7527777777777, A
286249, 795.1361111111111, A
286391, 795.5305555555556, A
286525, 795.9027777777778, A
286660, 796.2777777777778, A
286794, 796.65, A
286922, 797.0055555555556, A
287048, 797.3555555555556, A
287182, 797.7277777777778, A
287317, 798.1027777777778, A
287458, 798.4944444444444, A
287599, 798.8861111111111, A
287744, 799.2888888888889, A
287893, 799.7027777777778, A
288034, 800.0944444444444, A
288167, 800.4638888888888, A
288305, 800.8472222222222, A
288430, 801.1944444444445, A
288557, 801.5472222222222, A
288688, 801.9111111111112, A
288832, 802.3111111111111, +
288899, 802.4972222222223, N
289140, 803.1666666666666, N
289353, 803.7583333333333, N
289571, 804.3638888888889, N
289793, 804.9805555555556, N
289999, 805.5527777777778, N
290219, 806.1638888888889, N
290428, 806.7444444444444, N
290646, 807.35, N
290871, 807.975, N
290978, 808.2722222222222, ~
291042, 808.45, A
291303, 809.175, N
291397, 809.4361111111111, |
291525, 809.7916666666666, N
291762, 810.45, N
291841, 810.6694444444445, |
291999, 811.1083333333333, N
292076, 811.3222222222222, |
292228, 811.7444444444444, N
292458, 812.3833333333333, N
292689, 813.025, N
292912, 813.6444444444444, N
293122, 814.2277777777778, N
293353, 814.8694444444444, N
293571, 815.475, N
293807, 816.1305555555556, N
294044, 816.7888888888889, N
294222, 817.2833333333333, A
294495, 818.0416666666666, N
294727, 818.6861111111111, N
294955, 819.3194444444445, N
295170, 819.9166666666666, N
295394, 820.5388888888889, N
295609, 821.1361111111111, N
295837, 821.7694444444444, N
296066, 822.4055555555556, N
296214, 822.8166666666667, ~
296295, 823.0416666666666, N
296525, 823.6805555555555, N
296755, 824.3194444444445, N
296982, 824.95, N
297202, 825.5611111111111, N
297424, 826.1777777777778, N
297646, 826.7944444444445, N
297858, 827.3833333333333, N
298089, 828.025, N
298327, 828.6861111111111, N
298568, 829.3555555555556, N
298807, 830.0194444444444, N
299032, 830.6444444444444, N
299262, 831.2833333333333, N
299483, 831.8972222222222, N
299709, 832.525, N
299935, 833.1527777777778, N
300163, 833.7861111111112, N
300401, 834.4472222222222, N
300638, 835.1055555555556, N
300877, 835.7694444444444, N
301109, 836.4138888888889, N
301341, 837.0583333333333, N
301570, 837.6944444444445, N
301779, 838.275, N
302026, 838.9611111111111, N
302248, 839.5777777777778, N
302487, 840.2416666666667, N
302735, 840.9305555555555, N
302980, 841.6111111111111, N
303215, 842.2638888888889, N
303447, 842.9083333333333, N
303678, 843.55, N
303887, 844.1305555555556, A
304147, 844.8527777777778, N
304375, 845.4861111111111, N
304611, 846.1416666666667, N
304852, 846.8111111111111, N
305083, 847.4527777777778, N
305156, 847.6555555555556, ~
305312, 848.0888888888888, N
305530, 848.6944444444445, N
305759, 849.3305555555555, N
305991, 849.975, N
306213, 850.5916666666667, N
306427, 851.1861111111111, N
306652, 851.8111111111111, N
306883, 852.4527777777778, N
307104, 853.0666666666667, N
307347, 853.7416666666667, N
307577, 854.3805555555556, N
307810, 855.0277777777778, N
308031, 855.6416666666667, N
308206, 856.1277777777777, A
308458, 856.8277777777778, N
308675, 857.4305555555555, N
308907, 858.075, N
309140, 858.7222222222222, N
309371, 859.3638888888889, N
309593, 859.9805555555556, N
309711, 860.3083333333333, ~
309810, 860.5833333333334, N
310033, 861.2027777777778, N
310250, 861.8055555555555, N
310402, 862.2277777777778, A
310606, 862.7944444444445, N
310721, 863.1138888888889, +
310766, 863.2388888888889, A
310902, 863.6166666666667, A
311040, 864.0, A
311181, 864.3916666666667, A
311319, 864.775, A
311455, 865.1527777777778, A
311594, 865.5388888888889, A
311737, 865.9361111111111, A
311877, 866.325, A
312019, 866.7194444444444, A
312153, 867.0916666666667, A
312293, 867.4805555555556, A
312430, 867.8611111111111, A
312562, 868.2277777777778, A
312753, 868.7583333333333, N
312955, 869.3194444444445, +
313003, 869.4527777777778, N
313224, 870.0666666666667, N
313451, 870.6972222222222, N
313674, 871.3166666666667, N
313895, 871.9305555555555, N
314100, 872.5, N
314311, 873.0861111111111, N
314517, 873.6583333333333, N
314725, 874.2361111111111, N
314937, 874.825, N
315140, 875.3888888888889, N
315360, 876.0, N
315581, 876.6138888888889, N
315664, 876.8444444444444, |
315808, 877.2444444444444, N
316030, 877.8611111111111, N
316248, 878.4666666666667, N
316468, 879.0777777777778, N
316685, 879.6805555555555, N
316904, 880.2888888888889, N
317099, 880.8305555555555, N
317317, 881.4361111111111, N
317533, 882.0361111111112, N
317762, 882.6722222222222, N
317985, 883.2916666666666, N
318223, 883.9527777777778, N
318446, 884.5722222222222, N
318664, 885.1777777777778, N
318884, 885.7888888888889, N
319087, 886.3527777777778, N
319318, 886.9944444444444, N
319535, 887.5972222222222, N
319765, 888.2361111111111, N
319993, 888.8694444444444, N
320171, 889.3638888888889, A
320433, 890.0916666666667, N
320654, 890.7055555555555, N
320879, 891.3305555555555, N
321063, 891.8416666666667, N
321311, 892.5305555555556, N
321524, 893.1222222222223, N
321735, 893.7083333333334, N
321959, 894.3305555555555, N
322192, 894.9777777777778, N
322419, 895.6083333333333, N
322644, 896.2333333333333, N
322871, 896.8638888888889, N
323088, 897.4666666666667, N
323305, 898.0694444444445, N
323519, 898.6638888888889, N
323731, 899.2527777777777, N
323942, 899.8388888888888, N
324183, 900.5083333333333, N
324416, 901.1555555555556, N
324638, 901.7722222222222, N
324857, 902.3805555555556, N
325053, 902.925, N
325286, 903.5722222222222, N
325505, 904.1805555555555, N
325716, 904.7666666666667, N
325920, 905.3333333333334, N
326134, 905.9277777777778, N
326357, 906.5472222222222, N
326575, 907.1527777777778, N
326795, 907.7638888888889, N
327015, 908.375, N
327226, 908.9611111111111, N
327438, 909.55, N
327641, 910.1138888888889, N
327851, 910.6972222222222, N
328055, 911.2638888888889, N
328268, 911.8555555555556, N
328495, 912.4861111111111, N
328727, 913.1305555555556, N
328957, 913.7694444444444, N
329180, 914.3888888888889, N
329401, 915.0027777777777, N
329619, 915.6083333333333, N
329848, 916.2444444444444, N
330075, 916.875, N
330288, 917.4666666666667, N
330520, 918.1111111111111, N
330706, 918.6277777777777, A
330980, 919.3888888888889, N
331219, 920.0527777777778, N
331454, 920.7055555555555, N
331682, 921.3388888888888, N
331908, 921.9666666666667, N
332129, 922.5805555555555, N
332344, 923.1777777777778, N
332566, 923.7944444444445, N
332746, 924.2944444444445, A
333031, 925.0861111111111, N
333267, 925.7416666666667, N
333493, 926.3694444444444, N
333713, 926.9805555555556, N
333935, 927.5972222222222, N
334157, 928.2138888888888, N
334372, 928.8111111111111, N
334585, 929.4027777777778, N
334800, 930.0, N
335045, 930.6805555555555, N
335274, 931.3166666666667, N
335502, 931.95, N
335725, 932.5694444444445, N
335955, 933.2083333333334, N
336180, 933.8333333333334, N
336405, 934.4583333333334, N
336623, 935.0638888888889, N
336840, 935.6666666666666, N
337080, 936.3333333333334, N
337317, 936.9916666666667, N
337555, 937.6527777777778, N
337785, 938.2916666666666, N
338013, 938.925, N
338238, 939.55, N
338452, 940.1444444444444, N
338626, 940.6277777777777, A
338870, 941.3055555555555, N
339103, 941.9527777777778, N
339339, 942.6083333333333, N
339570, 943.25, N
339801, 943.8916666666667, N
340025, 944.5138888888889, N
340249, 945.1361111111111, N
340471, 945.7527777777777, N
340694, 946.3722222222223, N
340916, 946.9888888888889, N
341125, 947.5694444444445, N
341351, 948.1972222222222, N
341584, 948.8444444444444, N
341823, 949.5083333333333, N
342063, 950.175, N
342289, 950.8027777777778, N
342503, 951.3972222222222, N
342741, 952.0583333333333, N
342964, 952.6777777777778, N
343183, 953.2861111111112, N
343414, 953.9277777777778, N
343600, 954.4444444444445, A
343896, 955.2666666666667, N
344141, 955.9472222222222, N
344379, 956.6083333333333, N
344609, 957.2472222222223, N
344844, 957.9, N
345084, 958.5666666666667, N
345309, 959.1916666666667, N
345540, 959.8333333333334, N
345779, 960.4972222222223, N
346019, 961.1638888888889, N
346256, 961.8222222222222, N
346459, 962.3861111111111, N
346704, 963.0666666666667, N
346934, 963.7055555555555, N
347156, 964.3222222222222, N
347384, 964.9555555555555, N
347532, 965.3666666666667, A
347806, 966.1277777777777, N
348064, 966.8444444444444, N
348306, 967.5166666666667, N
348491, 968.0305555555556, A
348743, 968.7305555555556, N
348977, 969.3805555555556, N
349210, 970.0277777777778, N
349432, 970.6444444444444, N
349649, 971.2472222222223, N
349886, 971.9055555555556, N
350126, 972.5722222222222, N
350373, 973.2583333333333, N
350612, 973.9222222222222, N
350849, 974.5805555555555, N
351093, 975.2583333333333, N
351291, 975.8083333333333, N
351551, 976.5305555555556, N
351775, 977.1527777777778, N
352006, 977.7944444444445, N
352247, 978.4638888888888, N
352489, 979.1361111111111, N
352732, 979.8111111111111, N
352974, 980.4833333333333, N
353208, 981.1333333333333, N
353441, 981.7805555555556, N
353667, 982.4083333333333, N
353892, 983.0333333333333, N
354118, 983.6611111111112, N
354352, 984.3111111111111, N
354590, 984.9722222222222, N
354820, 985.6111111111111, N
355049, 986.2472222222223, N
355276, 986.8777777777777, N
355493, 987.4805555555556, N
355685, 988.0138888888889, A
355935, 988.7083333333334, N
356150, 989.3055555555555, N
356382, 989.95, N
356619, 990.6083333333333, N
356865, 991.2916666666666, N
357113, 991.9805555555556, N
357344, 992.6222222222223, N
357582, 993.2833333333333, N
357811, 993.9194444444445, N
358043, 994.5638888888889, N
358270, 995.1944444444445, N
358498, 995.8277777777778, N
358756, 996.5444444444445, N
359011, 997.2527777777777, N
359256, 997.9333333333333, N
359463, 998.5083333333333, A
359724, 999.2333333333333, N
359966, 999.9055555555556, N
360209, 1000.5805555555555, N
360432, 1001.2, N
360609, 1001.6916666666667, A
360879, 1002.4416666666667, N
361130, 1003.1388888888889, N
361369, 1003.8027777777778, N
361600, 1004.4444444444445, N
361834, 1005.0944444444444, N
362064, 1005.7333333333333, N
362285, 1006.3472222222222, N
362505, 1006.9583333333334, N
362722, 1007.5611111111111, N
362958, 1008.2166666666667, N
363200, 1008.8888888888889, N
363434, 1009.5388888888889, N
363669, 1010.1916666666667, N
363894, 1010.8166666666667, N
364119, 1011.4416666666667, N
364347, 1012.075, N
364575, 1012.7083333333334, N
364794, 1013.3166666666667, N
365031, 1013.975, N
365270, 1014.6388888888889, N
365513, 1015.3138888888889, N
365754, 1015.9833333333333, N
365995, 1016.6527777777778, N
366236, 1017.3222222222222, N
366467, 1017.9638888888888, N
366688, 1018.5777777777778, N
366883, 1019.1194444444444, A
367131, 1019.8083333333333, N
367366, 1020.4611111111111, N
367609, 1021.1361111111111, N
367847, 1021.7972222222222, N
368046, 1022.35, A
368300, 1023.0555555555555, N
368527, 1023.6861111111111, N
368752, 1024.3111111111111, N
368980, 1024.9444444444443, N
369187, 1025.5194444444444, N
369430, 1026.1944444444443, N
369667, 1026.8527777777779, N
369904, 1027.5111111111112, N
370135, 1028.1527777777778, N
370361, 1028.7805555555556, N
370592, 1029.4222222222222, N
370814, 1030.0388888888888, N
371037, 1030.6583333333333, N
371247, 1031.2416666666666, N
371467, 1031.8527777777779, N
371694, 1032.4833333333333, N
371932, 1033.1444444444444, N
372171, 1033.8083333333334, N
372397, 1034.4361111111111, N
372621, 1035.0583333333334, N
372842, 1035.6722222222222, N
373061, 1036.2805555555556, N
373282, 1036.8944444444444, N
373496, 1037.4888888888888, N
373728, 1038.1333333333334, N
373805, 1038.3472222222222, ~
373967, 1038.7972222222222, N
374196, 1039.4333333333334, N
374425, 1040.0694444444443, N
374643, 1040.675, N
374867, 1041.2972222222222, N
375089, 1041.9138888888888, N
375303, 1042.5083333333334, N
375520, 1043.111111111111, N
375725, 1043.6805555555557, N
375949, 1044.3027777777777, N
376181, 1044.9472222222223, N
376410, 1045.5833333333333, N
376642, 1046.2277777777779, N
376865, 1046.8472222222222, N
377087, 1047.463888888889, N
377309, 1048.0805555555555, N
377523, 1048.675, N
377742, 1049.2833333333333, N
377974, 1049.9277777777777, N
378212, 1050.588888888889, N
378450, 1051.25, N
378678, 1051.8833333333334, N
378904, 1052.5111111111112, N
379129, 1053.1361111111112, N
379352, 1053.7555555555555, N
379577, 1054.3805555555555, N
379777, 1054.9361111111111, A
380012, 1055.588888888889, N
380244, 1056.2333333333333, N
380478, 1056.8833333333334, N
380709, 1057.525, N
380936, 1058.1555555555556, N
381171, 1058.8083333333334, N
381400, 1059.4444444444443, N
381626, 1060.0722222222223, N
381844, 1060.6777777777777, N
382057, 1061.2694444444444, N
382286, 1061.9055555555556, N
382519, 1062.5527777777777, N
382754, 1063.2055555555555, N
382990, 1063.861111111111, N
383210, 1064.4722222222222, N
383432, 1065.088888888889, N
383645, 1065.6805555555557, N
383866, 1066.2944444444445, N
384089, 1066.9138888888888, N
384298, 1067.4944444444445, N
384522, 1068.1166666666666, N
384748, 1068.7444444444445, N
384978, 1069.3833333333334, N
385208, 1070.0222222222221, N
385427, 1070.6305555555555, N
385655, 1071.263888888889, N
385880, 1071.888888888889, N
386047, 1072.3527777777779, A
386288, 1073.0222222222221, N
386505, 1073.625, N
386735, 1074.263888888889, N
386973, 1074.925, N
387211, 1075.5861111111112, N
387442, 1076.2277777777779, N
387666, 1076.85, N
387889, 1077.4694444444444, N
388109, 1078.0805555555555, N
388330, 1078.6944444444443, N
388545, 1079.2916666666667, N
388774, 1079.9277777777777, N
389015, 1080.5972222222222, N
389250, 1081.25, N
389483, 1081.8972222222221, N
389708, 1082.5222222222221, N
389937, 1083.1583333333333, N
390164, 1083.7888888888888, N
390381, 1084.3916666666667, N
390600, 1085.0, N
390810, 1085.5833333333333, N
391034, 1086.2055555555555, N
391266, 1086.85, N
391494, 1087.4833333333333, N
391728, 1088.1333333333334, N
391955, 1088.763888888889, N
392176, 1089.3777777777777, N
392388, 1089.9666666666667, N
392611, 1090.5861111111112, N
392824, 1091.1777777777777, N
393076, 1091.8777777777777, N
393321, 1092.5583333333334, N
393561, 1093.225, N
393788, 1093.8555555555556, N
394011, 1094.475, N
394243, 1095.1194444444445, N
394466, 1095.7388888888888, N
394689, 1096.3583333333333, N
394910, 1096.9722222222222, N
395124, 1097.5666666666666, N
395325, 1098.125, N
395572, 1098.8111111111111, N
395804, 1099.4555555555555, N
396036, 1100.1, N
396258, 1100.7166666666667, N
396418, 1101.161111111111, A
396567, 1101.575, ~
396673, 1101.8694444444445, N
396893, 1102.4805555555556, N
397106, 1103.0722222222223, N
397320, 1103.6666666666667, N
397546, 1104.2944444444445, N
397782, 1104.95, N
398017, 1105.6027777777779, N
398241, 1106.225, N
398465, 1106.8472222222222, N
398683, 1107.4527777777778, N
398903, 1108.0638888888889, N
399125, 1108.6805555555557, N
399336, 1109.2666666666667, N
399561, 1109.8916666666667, N
399786, 1110.5166666666667, N
400021, 1111.1694444444445, N
400258, 1111.8277777777778, N
400481, 1112.4472222222223, N
400713, 1113.0916666666667, N
400942, 1113.7277777777779, N
401169, 1114.3583333333333, N
401391, 1114.975, N
401604, 1115.5666666666666, N
401837, 1116.213888888889, N
402080, 1116.888888888889, N
402319, 1117.5527777777777, N
402553, 1118.2027777777778, N
402775, 1118.8194444444443, N
402954, 1119.3166666666666, A
403213, 1120.036111111111, N
403437, 1120.6583333333333, N
403655, 1121.263888888889, N
403856, 1121.8222222222223, N
404113, 1122.536111111111, N
404350, 1123.1944444444443, N
404585, 1123.8472222222222, N
404813, 1124.4805555555556, N
405016, 1125.0444444444445, N
405277, 1125.7694444444444, N
405502, 1126.3944444444444, N
405722, 1127.0055555555555, N
405938, 1127.6055555555556, N
406169, 1128.2472222222223, N
406404, 1128.9, N
406637, 1129.5472222222222, N
406867, 1130.1861111111111, N
407074, 1130.7611111111112, N
407313, 1131.425, N
407532, 1132.0333333333333, N
407751, 1132.6416666666667, N
407967, 1133.2416666666666, N
408195, 1133.875, N
408426, 1134.5166666666667, N
408663, 1135.175, N
408894, 1135.8166666666666, N
409118, 1136.4388888888889, N
409349, 1137.0805555555555, N
409577, 1137.713888888889, N
409804, 1138.3444444444444, N
410032, 1138.9777777777779, N
410235, 1139.5416666666667, A
410482, 1140.2277777777779, N
410715, 1140.875, N
410954, 1141.5388888888888, N
411195, 1142.2083333333333, N
411420, 1142.8333333333333, N
411647, 1143.463888888889, N
411870, 1144.0833333333333, N
412093, 1144.7027777777778, N
412309, 1145.3027777777777, N
412536, 1145.9333333333334, N
412777, 1146.6027777777779, N
413021, 1147.2805555555556, N
413254, 1147.9277777777777, N
413481, 1148.5583333333334, N
413709, 1149.1916666666666, N
413939, 1149.8305555555555, N
414113, 1150.3138888888889, A
414368, 1151.0222222222221, N
414593, 1151.6472222222221, N
414821, 1152.2805555555556, N
415052, 1152.9222222222222, N
415289, 1153.5805555555555, N
415520, 1154.2222222222222, N
415747, 1154.8527777777779, N
415974, 1155.4833333333333, N
416193, 1156.0916666666667, N
416359, 1156.5527777777777, A
416607, 1157.2416666666666, N
416838, 1157.8833333333334, N
417079, 1158.5527777777777, N
417315, 1159.2083333333333, N
417548, 1159.8555555555556, N
417768, 1160.4666666666667, N
417996, 1161.1, N
418221, 1161.725, N
418439, 1162.3305555555555, N
418663, 1162.9527777777778, N
418887, 1163.575, N
419119, 1164.2194444444444, N
419357, 1164.8805555555555, N
419594, 1165.5388888888888, N
419831, 1166.1972222222223, N
420067, 1166.8527777777779, N
420295, 1167.486111111111, N
420525, 1168.125, N
420744, 1168.7333333333333, N
420960, 1169.3333333333333, N
421192, 1169.9777777777779, N
421427, 1170.6305555555555, N
421669, 1171.3027777777777, N
421907, 1171.963888888889, N
422134, 1172.5944444444444, N
422364, 1173.2333333333333, N
422583, 1173.8416666666667, N
422806, 1174.4611111111112, N
422974, 1174.9277777777777, A
423229, 1175.6361111111112, N
423465, 1176.2916666666667, N
423698, 1176.9388888888889, N
423935, 1177.5972222222222, N
424169, 1178.2472222222223, N
424394, 1178.8722222222223, N
424626, 1179.5166666666667, N
424840, 1180.111111111111, N
425079, 1180.775, N
425294, 1181.3722222222223, N
425521, 1182.0027777777777, N
425698, 1182.4944444444445, A
425971, 1183.2527777777777, N
426220, 1183.9444444444443, N
426451, 1184.5861111111112, N
426677, 1185.213888888889, N
426900, 1185.8333333333333, N
427121, 1186.4472222222223, N
427343, 1187.0638888888889, N
427565, 1187.6805555555557, N
427784, 1188.2888888888888, N
428039, 1188.9972222222223, N
428276, 1189.6555555555556, N
428507, 1190.2972222222222, N
428700, 1190.8333333333333, A
428960, 1191.5555555555557, N
429193, 1192.2027777777778, N
429414, 1192.8166666666666, N
429627, 1193.4083333333333, N
429855, 1194.0416666666667, N
430086, 1194.6833333333334, N
430320, 1195.3333333333333, N
430554, 1195.9833333333333, N
430781, 1196.6138888888888, N
431013, 1197.2583333333334, N
431232, 1197.8666666666666, N
431455, 1198.486111111111, N
431672, 1199.088888888889, N
431889, 1199.6916666666666, N
432127, 1200.3527777777779, N
432363, 1201.0083333333334, N
432602, 1201.6722222222222, N
432776, 1202.1555555555556, A
433026, 1202.85, N
433262, 1203.5055555555555, N
433484, 1204.1222222222223, N
433710, 1204.75, N
433930, 1205.361111111111, N
434160, 1206.0, N
434396, 1206.6555555555556, N
434625, 1207.2916666666667, N
434864, 1207.9555555555555, N
435098, 1208.6055555555556, N
435326, 1209.2388888888888, N
435550, 1209.861111111111, N
435756, 1210.4333333333334, N
435990, 1211.0833333333333, N
436209, 1211.6916666666666, N
436440, 1212.3333333333333, N
436654, 1212.9277777777777, A
436917, 1213.6583333333333, N
437150, 1214.3055555555557, N
437384, 1214.9555555555555, N
437610, 1215.5833333333333, N
437836, 1216.2111111111112, N
438063, 1216.8416666666667, N
438282, 1217.45, N
438516, 1218.1, N
438748, 1218.7444444444445, N
438971, 1219.3638888888888, N
439224, 1220.0666666666666, N
439449, 1220.6916666666666, N
439602, 1221.1166666666666, ~
439682, 1221.338888888889, N
439911, 1221.975, N
440141, 1222.6138888888888, N
440361, 1223.225, N
440583, 1223.8416666666667, N
440820, 1224.5, N
441006, 1225.0166666666667, A
441286, 1225.7944444444445, N
441519, 1226.4416666666666, N
441745, 1227.0694444444443, N
441967, 1227.6861111111111, N
442187, 1228.2972222222222, N
442403, 1228.8972222222221, N
442621, 1229.5027777777777, N
442851, 1230.1416666666667, N
443029, 1230.6361111111112, A
443302, 1231.3944444444444, N
443540, 1232.0555555555557, N
443764, 1232.6777777777777, N
443992, 1233.3111111111111, N
444222, 1233.95, N
444443, 1234.5638888888889, N
444661, 1235.1694444444445, N
444873, 1235.7583333333334, N
445102, 1236.3944444444444, N
445341, 1237.0583333333334, N
445571, 1237.6972222222223, N
445795, 1238.3194444444443, N
446031, 1238.975, N
446249, 1239.5805555555555, N
446467, 1240.1861111111111, N
446680, 1240.7777777777778, N
446893, 1241.3694444444445, N
447125, 1242.013888888889, N
447353, 1242.6472222222221, N
447589, 1243.3027777777777, N
447816, 1243.9333333333334, N
448040, 1244.5555555555557, N
448269, 1245.1916666666666, N
448489, 1245.8027777777777, N
448680, 1246.3333333333333, N
448930, 1247.0277777777778, N
449144, 1247.6222222222223, N
449374, 1248.2611111111112, N
449558, 1248.7722222222221, ~
449605, 1248.9027777777778, N
449836, 1249.5444444444445, N
450070, 1250.1944444444443, N
450296, 1250.8222222222223, N
450520, 1251.4444444444443, N
450735, 1252.0416666666667, N
450953, 1252.6472222222221, N
451164, 1253.2333333333333, N
451383, 1253.8416666666667, N
451614, 1254.4833333333333, N
451849, 1255.1361111111112, N
452082, 1255.7833333333333, N
452307, 1256.4083333333333, N
452529, 1257.025, N
452749, 1257.6361111111112, N
452974, 1258.2611111111112, N
453197, 1258.8805555555555, N
453408, 1259.4666666666667, N
453600, 1260.0, N
453857, 1260.713888888889, N
454087, 1261.3527777777779, N
454319, 1261.9972222222223, N
454544, 1262.6222222222223, N
454771, 1263.2527777777777, N
454996, 1263.8777777777777, N
455215, 1264.486111111111, N
455434, 1265.0944444444444, N
455647, 1265.6861111111111, N
455878, 1266.3277777777778, N
456119, 1266.9972222222223, N
456353, 1267.6472222222221, N
456584, 1268.2888888888888, N
456805, 1268.9027777777778, N
457030, 1269.5277777777778, N
457250, 1270.138888888889, N
457476, 1270.7666666666667, N
457690, 1271.361111111111, N
457923, 1272.0083333333334, N
458156, 1272.6555555555556, N
458389, 1273.3027777777777, N
458618, 1273.9388888888889, N
458847, 1274.575, N
459081, 1275.225, N
459300, 1275.8333333333333, N
459521, 1276.4472222222223, N
459736, 1277.0444444444445, N
459947, 1277.6305555555555, N
460179, 1278.275, N
460407, 1278.9083333333333, N
460640, 1279.5555555555557, N
460871, 1280.1972222222223, N
461026, 1280.6277777777777, A
461260, 1281.2777777777778, N
461482, 1281.8944444444444, N
461696, 1282.4888888888888, N
461913, 1283.0916666666667, N
462129, 1283.6916666666666, N
462354, 1284.3166666666666, N
462583, 1284.9527777777778, N
462811, 1285.5861111111112, N
463039, 1286.2194444444444, N
463266, 1286.85, N
463491, 1287.475, N
463716, 1288.1, N
463944, 1288.7333333333333, N
464157, 1289.325, N
464387, 1289.963888888889, N
464620, 1290.611111111111, N
464865, 1291.2916666666667, N
465061, 1291.8361111111112, A
465328, 1292.5777777777778, N
465566, 1293.2388888888888, N
465789, 1293.8583333333333, N
466011, 1294.475, N
466237, 1295.1027777777779, N
466453, 1295.7027777777778, N
466689, 1296.3583333333333, N
466931, 1297.0305555555556, N
467146, 1297.6277777777777, N
467393, 1298.3138888888889, N
467615, 1298.9305555555557, N
467840, 1299.5555555555557, N
468067, 1300.1861111111111, N
468288, 1300.8, N
468506, 1301.4055555555556, N
468733, 1302.036111111111, N
468972, 1302.7, N
469217, 1303.3805555555555, N
469450, 1304.0277777777778, N
469626, 1304.5166666666667, A
469904, 1305.2888888888888, N
470133, 1305.925, N
470359, 1306.5527777777777, N
470578, 1307.161111111111, N
470800, 1307.7777777777778, N
471040, 1308.4444444444443, N
471277, 1309.1027777777779, N
471516, 1309.7666666666667, N
471740, 1310.388888888889, N
471965, 1311.013888888889, N
472195, 1311.6527777777778, N
472417, 1312.2694444444444, N
472644, 1312.9, N
472865, 1313.513888888889, N
473100, 1314.1666666666667, N
473344, 1314.8444444444444, N
473579, 1315.4972222222223, N
473818, 1316.161111111111, N
474058, 1316.8277777777778, N
474256, 1317.3777777777777, A
474508, 1318.0777777777778, N
474732, 1318.7, N
474951, 1319.3083333333334, N
475184, 1319.9555555555555, N
475417, 1320.6027777777779, N
475660, 1321.2777777777778, N
475904, 1321.9555555555555, N
476133, 1322.5916666666667, N
476364, 1323.2333333333333, N
476589, 1323.8583333333333, N
476814, 1324.4833333333333, N
477043, 1325.1194444444445, N
477263, 1325.7305555555556, N
477489, 1326.3583333333333, N
477727, 1327.0194444444444, N
477960, 1327.6666666666667, N
478193, 1328.3138888888889, N
478418, 1328.9388888888889, N
478613, 1329.4805555555556, N
478867, 1330.1861111111111, N
479095, 1330.8194444444443, N
479312, 1331.4222222222222, N
479483, 1331.8972222222221, A
479758, 1332.661111111111, N
480006, 1333.35, N
480247, 1334.0194444444444, N
480472, 1334.6444444444444, N
480700, 1335.2777777777778, N
480924, 1335.9, N
481147, 1336.5194444444444, N
481366, 1337.1277777777777, N
481586, 1337.7388888888888, N
481821, 1338.3916666666667, N
482058, 1339.05, N
482289, 1339.6916666666666, N
482517, 1340.325, N
482743, 1340.9527777777778, N
482971, 1341.5861111111112, N
483198, 1342.2166666666667, N
483421, 1342.8361111111112, N
483636, 1343.4333333333334, N
483863, 1344.0638888888889, N
484102, 1344.7277777777779, N
484343, 1345.3972222222221, N
484583, 1346.0638888888889, N
484815, 1346.7083333333333, N
485053, 1347.3694444444445, N
485284, 1348.0111111111112, N
485510, 1348.638888888889, N
485724, 1349.2333333333333, N
485960, 1349.888888888889, N
486204, 1350.5666666666666, N
486442, 1351.2277777777779, N
486681, 1351.8916666666667, N
486909, 1352.525, N
487139, 1353.1638888888888, N
487365, 1353.7916666666667, N
487589, 1354.4138888888888, N
487820, 1355.0555555555557, N
488044, 1355.6777777777777, N
488278, 1356.3277777777778, N
488519, 1356.9972222222223, N
488759, 1357.6638888888888, N
488999, 1358.3305555555555, N
489236, 1358.9888888888888, N
489468, 1359.6333333333334, N
489692, 1360.2555555555555, N
489916, 1360.8777777777777, N
490134, 1361.4833333333333, N
490364, 1362.1222222222223, N
490607, 1362.7972222222222, N
490848, 1363.4666666666667, N
491089, 1364.1361111111112, N
491320, 1364.7777777777778, N
491546, 1365.4055555555556, N
491752, 1365.9777777777779, N
492010, 1366.6944444444443, N
492233, 1367.3138888888889, N
492466, 1367.9611111111112, N
492704, 1368.6222222222223, N
492944, 1369.2888888888888, N
493183, 1369.9527777777778, N
493410, 1370.5833333333333, N
493648, 1371.2444444444445, N
493880, 1371.888888888889, N
494101, 1372.5027777777777, N
494326, 1373.1277777777777, N
494542, 1373.7277777777779, N
494776, 1374.3777777777777, N
495022, 1375.0611111111111, N
495264, 1375.7333333333333, N
495497, 1376.3805555555555, N
495721, 1377.0027777777777, N
495949, 1377.6361111111112, N
496180, 1378.2777777777778, N
496400, 1378.888888888889, N
496617, 1379.4916666666666, N
496856, 1380.1555555555556, N
497094, 1380.8166666666666, N
497329, 1381.4694444444444, N
497560, 1382.111111111111, N
497787, 1382.7416666666666, N
498019, 1383.3861111111112, N
498243, 1384.0083333333334, N
498466, 1384.6277777777777, N
498678, 1385.2166666666667, N
498898, 1385.8277777777778, N
499132, 1386.4777777777779, N
499366, 1387.1277777777777, N
499604, 1387.7888888888888, N
499838, 1388.4388888888889, N
500062, 1389.0611111111111, N
500289, 1389.6916666666666, N
500509, 1390.3027777777777, N
500732, 1390.9222222222222, N
500951, 1391.5305555555556, N
501183, 1392.175, N
501418, 1392.8277777777778, N
501649, 1393.4694444444444, N
501882, 1394.1166666666666, N
502109, 1394.7472222222223, N
502290, 1395.25, A
502549, 1395.9694444444444, N
502776, 1396.6, N
502993, 1397.2027777777778, N
503211, 1397.8083333333334, N
503386, 1398.2944444444445, A
503648, 1399.0222222222221, N
503894, 1399.7055555555555, N
504131, 1400.3638888888888, N
504359, 1400.9972222222223, N
504586, 1401.6277777777777, N
504811, 1402.2527777777777, N
505033, 1402.8694444444445, N
505248, 1403.4666666666667, N
505483, 1404.1194444444445, N
505722, 1404.7833333333333, N
505962, 1405.45, N
506200, 1406.111111111111, N
506377, 1406.6027777777779, A
506635, 1407.3194444444443, N
506872, 1407.9777777777779, N
507106, 1408.6277777777777, N
507326, 1409.2388888888888, N
507498, 1409.7166666666667, A
507753, 1410.425, N
507995, 1411.0972222222222, N
508234, 1411.7611111111112, N
508407, 1412.2416666666666, A
508665, 1412.9583333333333, N
508906, 1413.6277777777777, N
509131, 1414.2527777777777, N
509353, 1414.8694444444445, N
509569, 1415.4694444444444, N
509805, 1416.125, N
510050, 1416.8055555555557, N
510287, 1417.463888888889, N
510526, 1418.1277777777777, N
510751, 1418.7527777777777, N
510974, 1419.3722222222223, N
511200, 1420.0, N
511424, 1420.6222222222223, N
511643, 1421.2305555555556, N
511871, 1421.8638888888888, N
512105, 1422.513888888889, N
512346, 1423.1833333333334, N
512578, 1423.8277777777778, N
512807, 1424.463888888889, N
513039, 1425.1083333333333, N
513261, 1425.725, N
513486, 1426.35, N
513704, 1426.9555555555555, N
513919, 1427.5527777777777, N
514154, 1428.2055555555555, N
514390, 1428.861111111111, N
514633, 1429.536111111111, N
514875, 1430.2083333333333, N
515103, 1430.8416666666667, N
515331, 1431.475, N
515554, 1432.0944444444444, N
515782, 1432.7277777777779, N
516005, 1433.3472222222222, N
516233, 1433.9805555555556, N
516473, 1434.6472222222221, N
516707, 1435.2972222222222, N
516943, 1435.9527777777778, N
517174, 1436.5944444444444, N
517399, 1437.2194444444444, N
517628, 1437.8555555555556, N
517856, 1438.4888888888888, N
518079, 1439.1083333333333, N
518295, 1439.7083333333333, N
518525, 1440.3472222222222, N
518766, 1441.0166666666667, N
519012, 1441.7, N
519249, 1442.3583333333333, N
519484, 1443.0111111111112, N
519710, 1443.638888888889, N
519939, 1444.275, N
520169, 1444.9138888888888, N
520385, 1445.513888888889, N
520602, 1446.1166666666666, N
520865, 1446.8472222222222, N
521102, 1447.5055555555555, N
521339, 1448.1638888888888, N
521563, 1448.786111111111, N
521792, 1449.4222222222222, N
522022, 1450.0611111111111, N
522245, 1450.6805555555557, N
522463, 1451.286111111111, N
522685, 1451.9027777777778, N
522916, 1452.5444444444445, N
523158, 1453.2166666666667, N
523392, 1453.8666666666666, N
523625, 1454.513888888889, N
523857, 1455.1583333333333, N
524082, 1455.7833333333333, N
524307, 1456.4083333333333, N
524524, 1457.0111111111112, N
524740, 1457.611111111111, N
524978, 1458.2722222222221, N
525215, 1458.9305555555557, N
525453, 1459.5916666666667, N
525681, 1460.225, N
525906, 1460.85, N
526132, 1461.4777777777779, N
526350, 1462.0833333333333, N
526578, 1462.7166666666667, N
526793, 1463.3138888888889, N
526991, 1463.8638888888888, A
527247, 1464.575, N
527483, 1465.2305555555556, N
527719, 1465.8861111111112, N
527949, 1466.525, N
528182, 1467.1722222222222, N
528408, 1467.8, N
528628, 1468.411111111111, N
528848, 1469.0222222222221, N
529063, 1469.6194444444445, N
529295, 1470.263888888889, N
529535, 1470.9305555555557, N
529772, 1471.588888888889, N
530008, 1472.2444444444445, N
530232, 1472.8666666666666, N
530456, 1473.4888888888888, N
530678, 1474.1055555555556, N
530883, 1474.675, N
531120, 1475.3333333333333, N
531348, 1475.9666666666667, N
531583, 1476.6194444444445, N
531821, 1477.2805555555556, N
532055, 1477.9305555555557, N
532280, 1478.5555555555557, N
532512, 1479.2, N
532741, 1479.8361111111112, N
532970, 1480.4722222222222, N
533190, 1481.0833333333333, N
533405, 1481.6805555555557, N
533640, 1482.3333333333333, N
533884, 1483.0111111111112, N
534125, 1483.6805555555557, N
534360, 1484.3333333333333, N
534585, 1484.9583333333333, N
534808, 1485.5777777777778, N
535022, 1486.1722222222222, N
535248, 1486.8, N
535463, 1487.3972222222221, N
535690, 1488.0277777777778, N
535928, 1488.6888888888889, N
536162, 1489.338888888889, N
536393, 1489.9805555555556, N
536613, 1490.5916666666667, N
536842, 1491.2277777777779, N
537072, 1491.8666666666666, N
537293, 1492.4805555555556, N
537515, 1493.0972222222222, N
537731, 1493.6972222222223, N
537959, 1494.3305555555555, N
538196, 1494.9888888888888, N
538434, 1495.65, N
538667, 1496.2972222222222, N
538897, 1496.9361111111111, N
539120, 1497.5555555555557, N
539345, 1498.1805555555557, N
539568, 1498.8, N
539787, 1499.4083333333333, N
540026, 1500.0722222222223, N
540266, 1500.7388888888888, N
540506, 1501.4055555555556, N
540741, 1502.0583333333334, N
540937, 1502.6027777777779, A
541195, 1503.3194444444443, N
541426, 1503.9611111111112, N
541650, 1504.5833333333333, N
541876, 1505.2111111111112, N
542039, 1505.6638888888888, A
542312, 1506.4222222222222, N
542555, 1507.0972222222222, N
542799, 1507.775, N
543036, 1508.4333333333334, N
543264, 1509.0666666666666, N
543490, 1509.6944444444443, N
543713, 1510.3138888888889, N
543934, 1510.9277777777777, N
544150, 1511.5277777777778, N
544385, 1512.1805555555557, N
544625, 1512.8472222222222, N
544863, 1513.5083333333334, N
545095, 1514.1527777777778, N
545323, 1514.786111111111, N
545552, 1515.4222222222222, N
545731, 1515.9194444444445, A
545987, 1516.6305555555555, N
546213, 1517.2583333333334, N
546443, 1517.8972222222221, N
546680, 1518.5555555555557, N
546920, 1519.2222222222222, N
547161, 1519.8916666666667, N
547396, 1520.5444444444445, N
547631, 1521.1972222222223, N
547866, 1521.85, N
548094, 1522.4833333333333, N
548316, 1523.1, N
548533, 1523.7027777777778, N
548777, 1524.3805555555555, N
549025, 1525.0694444444443, N
549264, 1525.7333333333333, N
549499, 1526.3861111111112, N
549687, 1526.9083333333333, A
549952, 1527.6444444444444, N
550182, 1528.2833333333333, N
550412, 1528.9222222222222, N
550562, 1529.338888888889, A
550778, 1529.9388888888889, N
550895, 1530.263888888889, +
550950, 1530.4166666666667, A
551102, 1530.838888888889, A
551251, 1531.2527777777777, A
551399, 1531.6638888888888, A
551547, 1532.075, A
551701, 1532.5027777777777, A
551843, 1532.8972222222221, +
551918, 1533.1055555555556, N
552209, 1533.9138888888888, N
552442, 1534.5611111111111, N
552661, 1535.1694444444445, N
552877, 1535.7694444444444, N
553111, 1536.4194444444445, N
553344, 1537.0666666666666, N
553576, 1537.7111111111112, N
553808, 1538.3555555555556, N
554030, 1538.9722222222222, N
554253, 1539.5916666666667, N
554468, 1540.1888888888889, N
554692, 1540.8111111111111, N
554913, 1541.425, N
555143, 1542.0638888888889, N
555338, 1542.6055555555556, A
555609, 1543.3583333333333, N
555850, 1544.0277777777778, N
556084, 1544.6777777777777, N
556314, 1545.3166666666666, N
556545, 1545.9583333333333, N
556777, 1546.6027777777779, N
556997, 1547.213888888889, N
557177, 1547.713888888889, A
557444, 1548.4555555555555, N
557687, 1549.1305555555555, N
557931, 1549.8083333333334, N
558163, 1550.4527777777778, N
558393, 1551.0916666666667, N
558614, 1551.7055555555555, N
558839, 1552.3305555555555, N
559050, 1552.9166666666667, N
559276, 1553.5444444444445, N
559513, 1554.2027777777778, N
559758, 1554.8833333333334, N
559996, 1555.5444444444445, N
560180, 1556.0555555555557, A
560440, 1556.7777777777778, N
560672, 1557.4222222222222, N
560899, 1558.0527777777777, N
561094, 1558.5944444444444, A
561336, 1559.2666666666667, N
561561, 1559.8916666666667, N
561798, 1560.55, N
562041, 1561.225, N
562280, 1561.888888888889, N
562518, 1562.55, N
562753, 1563.2027777777778, N
562984, 1563.8444444444444, N
563217, 1564.4916666666666, N
563440, 1565.111111111111, N
563663, 1565.7305555555556, N
563910, 1566.4166666666667, N
564153, 1567.0916666666667, N
564395, 1567.763888888889, N
564623, 1568.3972222222221, N
564853, 1569.036111111111, N
565087, 1569.6861111111111, N
565267, 1570.1861111111111, A
565527, 1570.9083333333333, N
565752, 1571.5333333333333, N
565984, 1572.1777777777777, N
566153, 1572.6472222222221, A
566417, 1573.3805555555555, N
566662, 1574.0611111111111, N
566895, 1574.7083333333333, N
567126, 1575.35, N
567354, 1575.9833333333333, N
567576, 1576.6, N
567797, 1577.213888888889, N
568018, 1577.8277777777778, N
568236, 1578.4333333333334, N
568494, 1579.15, N
568733, 1579.8138888888889, N
568967, 1580.463888888889, N
569199, 1581.1083333333333, N
569423, 1581.7305555555556, N
569646, 1582.35, N
569878, 1582.9944444444445, N
570099, 1583.6083333333333, N
570333, 1584.2583333333334, N
570567, 1584.9083333333333, N
570805, 1585.5694444444443, N
571043, 1586.2305555555556, N
571268, 1586.8555555555556, N
571503, 1587.5083333333334, N
571736, 1588.1555555555556, N
571960, 1588.7777777777778, N
572173, 1589.3694444444445, N
572400, 1590.0, N
572636, 1590.6555555555556, N
572862, 1591.2833333333333, N
573113, 1591.9805555555556, N
573341, 1592.6138888888888, N
573565, 1593.236111111111, N
573789, 1593.8583333333333, N
574014, 1594.4833333333333, N
574236, 1595.1, N
574457, 1595.713888888889, N
574692, 1596.3666666666666, N
574873, 1596.8694444444445, A
575155, 1597.6527777777778, N
575393, 1598.3138888888889, N
575622, 1598.95, N
575856, 1599.6, N
575971, 1599.9194444444445, ~
576085, 1600.236111111111, N
576310, 1600.861111111111, N
576521, 1601.4472222222223, N
576754, 1602.0944444444444, N
576953, 1602.6472222222221, N
577214, 1603.3722222222223, N
577450, 1604.0277777777778, N
577676, 1604.6555555555556, N
577841, 1605.1138888888888, A
578066, 1605.7388888888888, N
578287, 1606.3527777777779, N
578500, 1606.9444444444443, N
578709, 1607.525, N
578937, 1608.1583333333333, N
579164, 1608.7888888888888, N
579396, 1609.4333333333334, N
579622, 1610.0611111111111, N
579837, 1610.6583333333333, N
580059, 1611.275, N
580274, 1611.8722222222223, N
580490, 1612.4722222222222, N
580706, 1613.0722222222223, N
580913, 1613.6472222222221, N
581138, 1614.2722222222221, N
581362, 1614.8944444444444, N
581566, 1615.4611111111112, N
581649, 1615.6916666666666, |
581818, 1616.161111111111, N
582043, 1616.786111111111, N
582263, 1617.3972222222221, N
582475, 1617.986111111111, N
582652, 1618.4777777777779, A
582894, 1619.15, N
583105, 1619.736111111111, N
583335, 1620.375, N
583568, 1621.0222222222221, N
583797, 1621.6583333333333, N
584021, 1622.2805555555556, N
584238, 1622.8833333333334, N
584455, 1623.486111111111, N
584672, 1624.088888888889, N
584890, 1624.6944444444443, N
585097, 1625.2694444444444, N
585315, 1625.875, N
585538, 1626.4944444444445, N
585765, 1627.125, N
585998, 1627.7722222222221, N
586220, 1628.388888888889, N
586446, 1629.0166666666667, N
586669, 1629.6361111111112, N
586867, 1630.1861111111111, N
587102, 1630.838888888889, N
587308, 1631.411111111111, N
587535, 1632.0416666666667, N
587773, 1632.7027777777778, N
587979, 1633.275, N
588237, 1633.9916666666666, N
588460, 1634.611111111111, N
588686, 1635.2388888888888, N
588907, 1635.8527777777779, N
589121, 1636.4472222222223, N
589340, 1637.0555555555557, N
589555, 1637.6527777777778, N
589782, 1638.2833333333333, N
590009, 1638.9138888888888, N
590236, 1639.5444444444445, N
590462, 1640.1722222222222, N
590682, 1640.7833333333333, N
590883, 1641.3416666666667, N
591122, 1642.0055555555555, N
591341, 1642.6138888888888, N
591553, 1643.2027777777778, N
591761, 1643.7805555555556, N
591972, 1644.3666666666666, N
592215, 1645.0416666666667, N
592446, 1645.6833333333334, N
592674, 1646.3166666666666, N
592890, 1646.9166666666667, N
593108, 1647.5222222222221, N
593318, 1648.1055555555556, N
593533, 1648.7027777777778, N
593746, 1649.2944444444445, N
593965, 1649.9027777777778, N
594194, 1650.5388888888888, N
594420, 1651.1666666666667, N
594655, 1651.8194444444443, N
594879, 1652.4416666666666, N
595100, 1653.0555555555557, N
595322, 1653.6722222222222, N
595433, 1653.9805555555556, ~
595536, 1654.2666666666667, N
595753, 1654.8694444444445, N
595950, 1655.4166666666667, N
596164, 1656.0111111111112, N
596380, 1656.611111111111, N
596602, 1657.2277777777779, N
596825, 1657.8472222222222, N
597038, 1658.4388888888889, N
597252, 1659.0333333333333, N
597457, 1659.6027777777779, N
597661, 1660.1694444444445, N
597867, 1660.7416666666666, N
598064, 1661.2888888888888, N
598129, 1661.4694444444444, ~
598274, 1661.8722222222223, N
598487, 1662.463888888889, N
598676, 1662.9888888888888, A
598918, 1663.661111111111, N
599136, 1664.2666666666667, N
599340, 1664.8333333333333, N
599549, 1665.4138888888888, N
599760, 1666.0, N
599968, 1666.5777777777778, N
600177, 1667.1583333333333, N
600379, 1667.7194444444444, N
600600, 1668.3333333333333, N
600824, 1668.9555555555555, N
601051, 1669.5861111111112, N
601277, 1670.213888888889, N
601435, 1670.6527777777778, A
601681, 1671.3361111111112, N
601902, 1671.95, N
602120, 1672.5555555555557, N
602330, 1673.138888888889, N
602537, 1673.713888888889, N
602760, 1674.3333333333333, N
602991, 1674.975, N
603217, 1675.6027777777779, N
603409, 1676.1361111111112, N
603642, 1676.7833333333333, N
603859, 1677.3861111111112, N
604073, 1677.9805555555556, N
604228, 1678.411111111111, A
604475, 1679.0972222222222, N
604691, 1679.6972222222223, N
604910, 1680.3055555555557, N
605139, 1680.9416666666666, N
605358, 1681.55, N
605585, 1682.1805555555557, N
605810, 1682.8055555555557, N
605994, 1683.3166666666666, A
606241, 1684.0027777777777, N
606456, 1684.6, N
606675, 1685.2083333333333, N
606887, 1685.7972222222222, N
607111, 1686.4194444444445, N
607347, 1687.075, N
607577, 1687.713888888889, N
607803, 1688.3416666666667, N
608019, 1688.9416666666666, N
608236, 1689.5444444444445, N
608448, 1690.1333333333334, N
608596, 1690.5444444444445, ~
608663, 1690.7305555555556, N
608863, 1691.286111111111, N
609088, 1691.911111111111, N
609311, 1692.5305555555556, N
609529, 1693.1361111111112, N
609709, 1693.6361111111112, A
609958, 1694.3277777777778, N
610178, 1694.9388888888889, N
610400, 1695.5555555555557, N
610622, 1696.1722222222222, N
610844, 1696.7888888888888, N
611055, 1697.375, N
611225, 1697.8472222222222, ~
611272, 1697.9777777777779, N
611500, 1698.611111111111, N
611689, 1699.1361111111112, A
611957, 1699.8805555555555, N
612180, 1700.5, N
612399, 1701.1083333333333, N
612613, 1701.7027777777778, N
612824, 1702.2888888888888, N
613038, 1702.8833333333334, N
613239, 1703.4416666666666, N
613451, 1704.0305555555556, N
613683, 1704.675, N
613904, 1705.2888888888888, N
614127, 1705.9083333333333, N
614341, 1706.5027777777777, N
614511, 1706.975, A
614754, 1707.65, N
614976, 1708.2666666666667, N
615194, 1708.8722222222223, N
615398, 1709.4388888888889, N
615617, 1710.0472222222222, N
615843, 1710.675, N
616071, 1711.3083333333334, N
616304, 1711.9555555555555, N
616528, 1712.5777777777778, N
616759, 1713.2194444444444, N
616979, 1713.8305555555555, N
617133, 1714.2583333333334, A
617341, 1714.8361111111112, N
617455, 1715.1527777777778, +
617504, 1715.2888888888888, A
617647, 1715.6861111111111, A
617797, 1716.1027777777779, A
617951, 1716.5305555555556, A
618068, 1716.8555555555556, +
618164, 1717.1222222222223, N
618287, 1717.463888888889, +
618349, 1717.6361111111112, A
618502, 1718.0611111111111, A
618651, 1718.475, A
618861, 1719.0583333333334, A
619036, 1719.5444444444445, A
619178, 1719.9388888888889, A
619322, 1720.338888888889, A
619466, 1720.7388888888888, A
619608, 1721.1333333333334, A
619740, 1721.5, A
619884, 1721.9, A
620037, 1722.325, A
620189, 1722.7472222222223, A
620305, 1723.0694444444443, +
620398, 1723.3277777777778, N
620692, 1724.1444444444444, N
620926, 1724.7944444444445, N
621150, 1725.4166666666667, N
621346, 1725.9611111111112, N
621566, 1726.5722222222223, N
621778, 1727.161111111111, N
621987, 1727.7416666666666, N
622158, 1728.2166666666667, A
622416, 1728.9333333333334, N
622663, 1729.6194444444445, N
622893, 1730.2583333333334, N
623118, 1730.8833333333334, N
623342, 1731.5055555555555, N
623571, 1732.1416666666667, N
623802, 1732.7833333333333, N
624000, 1733.3333333333333, A
624244, 1734.0111111111112, N
624482, 1734.6722222222222, N
624722, 1735.338888888889, N
624962, 1736.0055555555555, N
625198, 1736.661111111111, N
625434, 1737.3166666666666, N
625668, 1737.9666666666667, N
625894, 1738.5944444444444, N
626120, 1739.2222222222222, N
626344, 1739.8444444444444, N
626590, 1740.5277777777778, N
626843, 1741.2305555555556, N
627035, 1741.763888888889, A
627315, 1742.5416666666667, N
627558, 1743.2166666666667, N
627800, 1743.888888888889, N
628032, 1744.5333333333333, N
628267, 1745.1861111111111, N
628499, 1745.8305555555555, N
628740, 1746.5, N
628935, 1747.0416666666667, A
629217, 1747.825, N
629460, 1748.5, N
629704, 1749.1777777777777, N
629939, 1749.8305555555555, N
630176, 1750.4888888888888, N
630405, 1751.125, N
630631, 1751.7527777777777, N
630873, 1752.425, N
631125, 1753.125, N
631372, 1753.8111111111111, N
631612, 1754.4777777777779, N
631779, 1754.9416666666666, A
631897, 1755.2694444444444, +
631983, 1755.5083333333334, A
632151, 1755.975, A
632292, 1756.3666666666666, A
632434, 1756.7611111111112, A
632577, 1757.1583333333333, A
632720, 1757.5555555555557, A
632869, 1757.9694444444444, +
632937, 1758.1583333333333, N
633247, 1759.0194444444444, N
633490, 1759.6944444444443, N
633727, 1760.3527777777779, N
633959, 1760.9972222222223, N
634191, 1761.6416666666667, N
634422, 1762.2833333333333, N
634620, 1762.8333333333333, N
634866, 1763.5166666666667, N
635101, 1764.1694444444445, N
635344, 1764.8444444444444, N
635592, 1765.5333333333333, N
635836, 1766.2111111111112, N
636067, 1766.8527777777779, N
636301, 1767.5027777777777, N
636516, 1768.1, N
636750, 1768.75, N
636969, 1769.3583333333333, N
637205, 1770.013888888889, N
637446, 1770.6833333333334, N
637687, 1771.3527777777779, N
637925, 1772.013888888889, N
638157, 1772.6583333333333, N
638391, 1773.3083333333334, N
638623, 1773.9527777777778, N
638855, 1774.5972222222222, N
639085, 1775.236111111111, N
639306, 1775.85, N
639493, 1776.3694444444445, A
639775, 1777.1527777777778, N
640022, 1777.838888888889, N
640261, 1778.5027777777777, N
640499, 1779.1638888888888, N
640733, 1779.8138888888889, N
640964, 1780.4555555555555, N
641193, 1781.0916666666667, N
641420, 1781.7222222222222, N
641669, 1782.4138888888888, N
641919, 1783.1083333333333, N
642172, 1783.8111111111111, N
642411, 1784.475, N
642618, 1785.05, N
642878, 1785.7722222222221, N
643107, 1786.4083333333333, N
643339, 1787.0527777777777, N
643568, 1787.6888888888889, N
643803, 1788.3416666666667, N
644046, 1789.0166666666667, N
644277, 1789.6583333333333, N
644474, 1790.2055555555555, N
644740, 1790.9444444444443, N
644969, 1791.5805555555555, N
645195, 1792.2083333333333, N
645355, 1792.6527777777778, A
645603, 1793.3416666666667, N
645840, 1794.0, N
646075, 1794.6527777777778, N
646320, 1795.3333333333333, N
646564, 1796.0111111111112, N
646795, 1796.6527777777778, N
647034, 1797.3166666666666, N
647265, 1797.9583333333333, N
647443, 1798.4527777777778, A
647717, 1799.213888888889, N
647947, 1799.8527777777779, N
648194, 1800.5388888888888, N
648435, 1801.2083333333333, N
648673, 1801.8694444444445, N
648912, 1802.5333333333333, N
649149, 1803.1916666666666, N
649387, 1803.8527777777779, N
649627, 1804.5194444444444, N
649857, 1805.1583333333333, N
