13, 0.03611111111111111, +
57, 0.15833333333333333, N
250, 0.6944444444444444, N
471, 1.3083333333333333, N
625, 1.7361111111111112, V
866, 2.4055555555555554, N
1081, 3.0027777777777778, N
1298, 3.6055555555555556, N
1586, 4.405555555555556, N
1818, 5.05, N
2028, 5.633333333333334, N
2249, 6.247222222222222, N
2508, 6.966666666666667, N
2749, 7.636111111111111, N
2987, 8.297222222222222, N
3246, 9.016666666666667, N
3464, 9.622222222222222, N
3674, 10.205555555555556, N
3841, 10.669444444444444, V
4151, 11.530555555555555, N
4381, 12.169444444444444, N
4595, 12.76388888888889, N
4825, 13.402777777777779, N
5124, 14.233333333333333, N
5363, 14.897222222222222, N
5631, 15.641666666666667, N
5828, 16.18888888888889, N
6092, 16.92222222222222, N
6364, 17.677777777777777, N
6531, 18.141666666666666, V
6740, 18.72222222222222, N
6947, 19.29722222222222, N
7187, 19.96388888888889, N
7414, 20.594444444444445, N
7617, 21.158333333333335, N
7842, 21.783333333333335, N
8115, 22.541666666666668, F
8399, 23.330555555555556, N
8669, 24.080555555555556, N
8876, 24.655555555555555, N
9103, 25.28611111111111, N
9415, 26.15277777777778, N
9678, 26.883333333333333, N
9899, 27.497222222222224, N
10247, 28.46388888888889, N
10498, 29.16111111111111, N
10750, 29.86111111111111, N
10952, 30.42222222222222, N
11072, 30.755555555555556, V
11427, 31.741666666666667, N
11670, 32.416666666666664, N
11923, 33.11944444444445, N
12167, 33.797222222222224, N
12376, 34.37777777777778, N
12506, 34.73888888888889, V
12789, 35.525, N
13016, 36.15555555555556, N
13201, 36.669444444444444, N
13452, 37.36666666666667, N
13723, 38.11944444444445, N
13977, 38.825, N
14197, 39.43611111111111, N
14449, 40.13611111111111, N
14667, 40.74166666666667, N
14954, 41.53888888888889, N
15184, 42.17777777777778, N
15413, 42.81388888888889, N
15642, 43.45, N
15874, 44.09444444444444, N
16125, 44.791666666666664, N
16352, 45.422222222222224, N
16606, 46.12777777777778, N
16845, 46.791666666666664, N
16998, 47.21666666666667, V
17259, 47.94166666666667, N
17521, 48.669444444444444, N
17787, 49.40833333333333, N
18054, 50.15, N
18257, 50.71388888888889, N
18513, 51.425, N
18747, 52.075, N
18977, 52.71388888888889, N
19102, 53.06111111111111, V
19355, 53.763888888888886, N
19555, 54.31944444444444, N
19767, 54.90833333333333, N
20034, 55.65, N
20274, 56.31666666666667, N
20510, 56.97222222222222, N
20692, 57.477777777777774, N
21047, 58.46388888888889, N
21246, 59.016666666666666, N
21444, 59.56666666666667, N
21638, 60.105555555555554, N
21840, 60.666666666666664, N
22083, 61.34166666666667, N
22356, 62.1, N
22618, 62.827777777777776, N
22876, 63.544444444444444, N
23184, 64.4, N
23438, 65.10555555555555, N
23691, 65.80833333333334, N
23939, 66.49722222222222, N
24193, 67.20277777777778, N
24431, 67.8638888888889, N
24700, 68.61111111111111, N
24968, 69.35555555555555, N
25192, 69.97777777777777, N
25390, 70.52777777777777, N
25528, 70.91111111111111, V
25846, 71.79444444444445, N
26103, 72.50833333333334, N
26308, 73.07777777777778, N
26514, 73.65, N
26779, 74.3861111111111, N
27111, 75.30833333333334, N
27365, 76.01388888888889, N
27579, 76.60833333333333, N
27826, 77.29444444444445, N
28099, 78.05277777777778, N
28332, 78.7, N
28619, 79.49722222222222, N
28886, 80.2388888888889, N
29135, 80.93055555555556, N
29413, 81.70277777777778, N
29661, 82.39166666666667, N
29909, 83.08055555555555, N
30205, 83.90277777777777, N
30448, 84.57777777777778, N
30683, 85.23055555555555, N
30955, 85.98611111111111, N
31150, 86.52777777777777, N
31423, 87.28611111111111, N
31636, 87.87777777777778, N
31916, 88.65555555555555, N
32151, 89.30833333333334, N
32340, 89.83333333333333, N
32552, 90.42222222222222, N
32805, 91.125, N
33083, 91.89722222222223, N
33338, 92.60555555555555, N
33605, 93.34722222222223, N
33870, 94.08333333333333, N
34130, 94.80555555555556, N
34379, 95.49722222222222, N
34606, 96.12777777777778, N
34800, 96.66666666666667, N
35070, 97.41666666666667, N
35223, 97.84166666666667, V
35373, 98.25833333333334, V
35695, 99.15277777777777, N
35914, 99.7611111111111, N
36166, 100.46111111111111, N
36419, 101.16388888888889, N
36644, 101.78888888888889, N
36888, 102.46666666666667, N
37120, 103.11111111111111, N
37329, 103.69166666666666, N
37611, 104.475, N
37875, 105.20833333333333, N
38133, 105.925, N
38369, 106.58055555555555, N
38602, 107.22777777777777, N
38851, 107.91944444444445, N
39066, 108.51666666666667, N
39341, 109.28055555555555, N
39556, 109.87777777777778, N
39836, 110.65555555555555, N
40111, 111.41944444444445, N
40328, 112.02222222222223, N
40537, 112.60277777777777, N
40777, 113.26944444444445, N
41046, 114.01666666666667, N
41300, 114.72222222222223, N
41565, 115.45833333333333, N
41816, 116.15555555555555, N
42048, 116.8, N
42288, 117.46666666666667, N
42488, 118.02222222222223, N
42680, 118.55555555555556, N
42918, 119.21666666666667, N
43115, 119.76388888888889, N
43345, 120.40277777777777, N
43549, 120.96944444444445, N
43799, 121.66388888888889, N
44132, 122.58888888888889, N
44371, 123.25277777777778, N
44607, 123.90833333333333, V
44747, 124.29722222222222, V
45051, 125.14166666666667, N
45208, 125.57777777777778, V
45513, 126.425, N
45671, 126.8638888888889, V
45981, 127.725, N
46235, 128.43055555555554, N
46428, 128.96666666666667, V
46666, 129.62777777777777, N
46848, 130.13333333333333, V
47111, 130.86388888888888, N
47356, 131.54444444444445, N
47584, 132.17777777777778, V
47827, 132.8527777777778, N
48100, 133.61111111111111, N
48301, 134.16944444444445, V
48520, 134.77777777777777, V
48836, 135.65555555555557, N
49088, 136.35555555555555, N
49315, 136.98611111111111, N
49517, 137.54722222222222, N
49677, 137.99166666666667, V
49996, 138.87777777777777, N
50288, 139.6888888888889, N
50559, 140.44166666666666, N
50811, 141.14166666666668, N
51058, 141.82777777777778, N
51323, 142.5638888888889, N
51521, 143.11388888888888, N
51813, 143.925, N
52084, 144.67777777777778, N
52368, 145.46666666666667, N
52612, 146.14444444444445, N
52919, 146.99722222222223, N
53168, 147.6888888888889, N
53420, 148.38888888888889, N
53665, 149.06944444444446, N
53964, 149.9, N
54245, 150.68055555555554, N
54552, 151.53333333333333, N
54781, 152.16944444444445, N
54998, 152.7722222222222, N
55233, 153.425, N
55543, 154.2861111111111, N
55795, 154.98611111111111, N
56059, 155.71944444444443, N
56310, 156.41666666666666, N
56598, 157.21666666666667, N
56871, 157.975, N
57127, 158.6861111111111, N
57371, 159.36388888888888, N
57599, 159.99722222222223, N
57852, 160.7, N
58092, 161.36666666666667, N
58361, 162.11388888888888, N
58572, 162.7, N
58838, 163.4388888888889, N
59066, 164.07222222222222, N
59401, 165.00277777777777, N
59609, 165.58055555555555, N
59879, 166.33055555555555, N
60118, 166.99444444444444, N
60360, 167.66666666666666, N
60565, 168.23611111111111, N
60763, 168.7861111111111, N
61017, 169.49166666666667, N
61272, 170.2, N
61526, 170.90555555555557, N
61791, 171.64166666666668, N
62019, 172.275, N
62251, 172.91944444444445, N
62474, 173.5388888888889, N
62710, 174.19444444444446, N
62978, 174.9388888888889, N
63209, 175.58055555555555, N
63477, 176.325, N
63716, 176.98888888888888, N
63945, 177.625, N
64218, 178.38333333333333, N
64468, 179.07777777777778, N
64769, 179.9138888888889, N
64991, 180.53055555555557, N
65238, 181.21666666666667, N
65520, 182.0, N
65808, 182.8, N
66039, 183.44166666666666, N
66302, 184.17222222222222, N
66624, 185.06666666666666, N
66822, 185.61666666666667, N
67079, 186.33055555555555, N
67331, 187.03055555555557, N
67572, 187.7, N
67636, 187.87777777777777, ~
67838, 188.4388888888889, N
68118, 189.21666666666667, N
68361, 189.89166666666668, N
68564, 190.45555555555555, N
68821, 191.16944444444445, N
69079, 191.88611111111112, N
69303, 192.50833333333333, N
69525, 193.125, N
69750, 193.75, N
70016, 194.48888888888888, N
70290, 195.25, N
70535, 195.93055555555554, N
70792, 196.64444444444445, N
71026, 197.29444444444445, N
71282, 198.00555555555556, N
71482, 198.5611111111111, ~
71506, 198.62777777777777, N
71728, 199.24444444444444, N
71935, 199.81944444444446, N
72063, 200.175, V
72234, 200.65, V
72567, 201.575, N
72792, 202.2, N
73016, 202.82222222222222, N
73224, 203.4, N
73463, 204.0638888888889, N
73712, 204.75555555555556, N
73993, 205.5361111111111, N
74250, 206.25, N
74469, 206.85833333333332, N
74591, 207.19722222222222, V
74829, 207.85833333333332, N
75070, 208.52777777777777, N
75275, 209.09722222222223, N
75478, 209.6611111111111, N
75660, 210.16666666666666, a
75955, 210.98611111111111, N
76223, 211.73055555555555, N
76448, 212.35555555555555, N
76686, 213.01666666666668, N
76898, 213.60555555555555, N
77151, 214.30833333333334, N
77349, 214.85833333333332, N
77540, 215.38888888888889, N
77797, 216.1027777777778, N
78035, 216.76388888888889, N
78277, 217.4361111111111, N
78521, 218.11388888888888, N
78766, 218.79444444444445, N
78987, 219.40833333333333, N
79166, 219.90555555555557, N
79476, 220.76666666666668, N
79718, 221.4388888888889, N
79957, 222.1027777777778, N
80212, 222.8111111111111, N
80461, 223.50277777777777, N
80585, 223.84722222222223, V
80902, 224.7277777777778, N
81064, 225.17777777777778, ~
81184, 225.51111111111112, N
81386, 226.07222222222222, N
81644, 226.7888888888889, N
81875, 227.43055555555554, N
82098, 228.05, N
82307, 228.63055555555556, ~
82390, 228.86111111111111, N
82666, 229.62777777777777, N
82919, 230.33055555555555, N
83132, 230.92222222222222, N
83394, 231.65, N
83665, 232.40277777777777, N
83915, 233.09722222222223, N
84045, 233.45833333333334, V
84319, 234.21944444444443, N
84523, 234.7861111111111, N
84787, 235.51944444444445, N
85059, 236.275, N
85323, 237.00833333333333, N
85575, 237.70833333333334, N
85815, 238.375, N
86076, 239.1, N
86313, 239.75833333333333, N
86537, 240.38055555555556, N
86743, 240.95277777777778, V
87128, 242.0222222222222, N
87401, 242.78055555555557, N
87677, 243.54722222222222, N
87887, 244.13055555555556, N
88148, 244.85555555555555, N
88260, 245.16666666666666, ~
88393, 245.5361111111111, N
88634, 246.20555555555555, N
88856, 246.82222222222222, N
89073, 247.425, N
89314, 248.09444444444443, N
89598, 248.88333333333333, N
89897, 249.7138888888889, N
90162, 250.45, N
90367, 251.01944444444445, N
90589, 251.63611111111112, N
90856, 252.37777777777777, N
91120, 253.11111111111111, N
91361, 253.78055555555557, N
91586, 254.40555555555557, N
91836, 255.1, N
92138, 255.9388888888889, N
92402, 256.6722222222222, N
92559, 257.10833333333335, V
92812, 257.81111111111113, N
93011, 258.3638888888889, N
93258, 259.05, N
93384, 259.4, V
93666, 260.18333333333334, N
93921, 260.89166666666665, N
94185, 261.625, N
94477, 262.43611111111113, N
94707, 263.075, N
95048, 264.02222222222224, N
95280, 264.6666666666667, N
95575, 265.4861111111111, N
95839, 266.21944444444443, N
96097, 266.93611111111113, N
96396, 267.76666666666665, N
96621, 268.39166666666665, N
96781, 268.8361111111111, a
97092, 269.7, N
97338, 270.3833333333333, N
97577, 271.0472222222222, N
97832, 271.75555555555553, N
98078, 272.43888888888887, N
98385, 273.2916666666667, N
98563, 273.7861111111111, N
98789, 274.4138888888889, N
99069, 275.19166666666666, N
99317, 275.88055555555553, N
99571, 276.5861111111111, N
99830, 277.30555555555554, N
100035, 277.875, N
100268, 278.52222222222224, N
100555, 279.31944444444446, N
100728, 279.8, V
100975, 280.4861111111111, N
101238, 281.21666666666664, N
101457, 281.825, N
101657, 282.38055555555553, N
101908, 283.0777777777778, N
102140, 283.72222222222223, N
102382, 284.39444444444445, N
102645, 285.125, N
102918, 285.8833333333333, N
103166, 286.5722222222222, N
103441, 287.3361111111111, N
103652, 287.9222222222222, N
103886, 288.5722222222222, N
104138, 289.27222222222224, N
104425, 290.06944444444446, N
104724, 290.9, N
104956, 291.5444444444444, N
105187, 292.18611111111113, N
105424, 292.84444444444443, N
105704, 293.6222222222222, N
105949, 294.3027777777778, N
106156, 294.8777777777778, N
106382, 295.50555555555553, N
106529, 295.9138888888889, V
106821, 296.725, N
107088, 297.46666666666664, N
107313, 298.09166666666664, N
107522, 298.6722222222222, N
107733, 299.2583333333333, N
107979, 299.94166666666666, N
108192, 300.53333333333336, N
108309, 300.85833333333335, V
108653, 301.81388888888887, N
108836, 302.3222222222222, N
109059, 302.94166666666666, N
109301, 303.6138888888889, N
109544, 304.2888888888889, N
109765, 304.90277777777777, N
110003, 305.56388888888887, N
110254, 306.2611111111111, N
110508, 306.96666666666664, N
110766, 307.68333333333334, N
110994, 308.31666666666666, N
111260, 309.05555555555554, N
111532, 309.81111111111113, N
111764, 310.4555555555556, N
111998, 311.10555555555555, N
112267, 311.85277777777776, N
112495, 312.4861111111111, N
112703, 313.06388888888887, N
112952, 313.75555555555553, N
113163, 314.34166666666664, N
113372, 314.9222222222222, N
113611, 315.5861111111111, N
113922, 316.45, N
114182, 317.1722222222222, N
114392, 317.75555555555553, N
114589, 318.3027777777778, N
114767, 318.7972222222222, N
115061, 319.6138888888889, N
115328, 320.35555555555555, N
115560, 321.0, N
115795, 321.65277777777777, N
115925, 322.0138888888889, V
116225, 322.84722222222223, N
116466, 323.51666666666665, N
116699, 324.1638888888889, N
116908, 324.74444444444447, N
117162, 325.45, N
117509, 326.4138888888889, N
117760, 327.1111111111111, N
117990, 327.75, N
118307, 328.63055555555553, N
118542, 329.28333333333336, N
118788, 329.96666666666664, N
119017, 330.60277777777776, N
119265, 331.2916666666667, N
119498, 331.93888888888887, N
119676, 332.43333333333334, V
119978, 333.27222222222224, N
120184, 333.84444444444443, N
120411, 334.475, N
120750, 335.4166666666667, N
121055, 336.2638888888889, N
121308, 336.96666666666664, N
121558, 337.6611111111111, N
121834, 338.4277777777778, N
122081, 339.1138888888889, N
122363, 339.89722222222224, N
122593, 340.5361111111111, N
122836, 341.2111111111111, N
123070, 341.8611111111111, N
123290, 342.47222222222223, N
123511, 343.0861111111111, N
123819, 343.94166666666666, N
124052, 344.5888888888889, N
124293, 345.2583333333333, N
124527, 345.90833333333336, N
124824, 346.73333333333335, N
125095, 347.4861111111111, N
125309, 348.0805555555556, N
125572, 348.81111111111113, N
125825, 349.5138888888889, N
126121, 350.3361111111111, N
126398, 351.10555555555555, N
126638, 351.77222222222224, N
126887, 352.4638888888889, N
127162, 353.22777777777776, N
127409, 353.9138888888889, N
127644, 354.56666666666666, N
127874, 355.2055555555556, N
128134, 355.9277777777778, N
128420, 356.72222222222223, N
128620, 357.27777777777777, N
128869, 357.96944444444443, N
129010, 358.3611111111111, V
129306, 359.18333333333334, N
129521, 359.78055555555557, N
129755, 360.43055555555554, N
130015, 361.15277777777777, N
130275, 361.875, N
130550, 362.6388888888889, N
130820, 363.3888888888889, N
131147, 364.2972222222222, N
131502, 365.28333333333336, N
131754, 365.98333333333335, N
132012, 366.7, N
132273, 367.425, N
132535, 368.15277777777777, N
132806, 368.90555555555557, N
133046, 369.5722222222222, N
133337, 370.38055555555553, N
133632, 371.2, N
133888, 371.9111111111111, N
134089, 372.46944444444443, N
134380, 373.27777777777777, N
134642, 374.00555555555553, N
134895, 374.7083333333333, N
135169, 375.46944444444443, N
135400, 376.1111111111111, N
135644, 376.7888888888889, N
135852, 377.3666666666667, N
136092, 378.03333333333336, N
136334, 378.7055555555556, N
136663, 379.61944444444447, N
136904, 380.2888888888889, N
137188, 381.0777777777778, N
137436, 381.76666666666665, N
137680, 382.44444444444446, N
137925, 383.125, N
138152, 383.75555555555553, N
138411, 384.475, N
138664, 385.1777777777778, N
138929, 385.9138888888889, N
139284, 386.9, N
139527, 387.575, N
139777, 388.26944444444445, N
140030, 388.97222222222223, N
140249, 389.5805555555556, N
140545, 390.40277777777777, N
140829, 391.19166666666666, N
141105, 391.9583333333333, N
141358, 392.6611111111111, N
141649, 393.46944444444443, N
141919, 394.21944444444443, N
142194, 394.98333333333335, N
142385, 395.5138888888889, N
142613, 396.14722222222224, N
142865, 396.84722222222223, N
143103, 397.5083333333333, N
143390, 398.30555555555554, N
143666, 399.0722222222222, N
143937, 399.825, N
144200, 400.55555555555554, N
144447, 401.2416666666667, N
144671, 401.8638888888889, N
144918, 402.55, N
145128, 403.1333333333333, N
145415, 403.93055555555554, N
145706, 404.7388888888889, N
145938, 405.3833333333333, N
146194, 406.09444444444443, N
146403, 406.675, N
146622, 407.28333333333336, N
146836, 407.8777777777778, N
147037, 408.43611111111113, N
147245, 409.0138888888889, N
147572, 409.9222222222222, N
147831, 410.64166666666665, N
148101, 411.39166666666665, N
148335, 412.0416666666667, N
148547, 412.63055555555553, N
148781, 413.28055555555557, N
149015, 413.93055555555554, N
149235, 414.5416666666667, N
149558, 415.43888888888887, N
149827, 416.18611111111113, N
150049, 416.8027777777778, N
150315, 417.5416666666667, N
150572, 418.25555555555553, N
150820, 418.94444444444446, N
151031, 419.53055555555557, N
151246, 420.1277777777778, N
151456, 420.7111111111111, N
151554, 420.98333333333335, +
151617, 421.15833333333336, V
151748, 421.52222222222224, V
151936, 422.0444444444444, V
152055, 422.375, V
152196, 422.76666666666665, V
152338, 423.1611111111111, V
152488, 423.5777777777778, +
152603, 423.89722222222224, N
152741, 424.28055555555557, V
153060, 425.1666666666667, N
153293, 425.81388888888887, N
153497, 426.38055555555553, N
153755, 427.09722222222223, N
154044, 427.9, N
154311, 428.64166666666665, N
154552, 429.31111111111113, N
154775, 429.93055555555554, N
155024, 430.6222222222222, N
155396, 431.65555555555557, N
155637, 432.325, N
155904, 433.06666666666666, N
156158, 433.77222222222224, N
156444, 434.56666666666666, N
156699, 435.275, N
156936, 435.93333333333334, N
157176, 436.6, N
157397, 437.2138888888889, N
157608, 437.8, N
157821, 438.39166666666665, N
158036, 438.9888888888889, N
158308, 439.74444444444447, N
158548, 440.4111111111111, N
158948, 441.52222222222224, N
159209, 442.2472222222222, N
159476, 442.9888888888889, N
159734, 443.7055555555556, N
159935, 444.2638888888889, N
160177, 444.93611111111113, N
160439, 445.6638888888889, N
160722, 446.45, N
160980, 447.1666666666667, N
161212, 447.81111111111113, N
161477, 448.5472222222222, N
161701, 449.1694444444444, N
161933, 449.81388888888887, N
162165, 450.4583333333333, N
162438, 451.21666666666664, N
162699, 451.94166666666666, N
162842, 452.3388888888889, V
163127, 453.13055555555553, N
163360, 453.77777777777777, N
163594, 454.4277777777778, N
163849, 455.1361111111111, N
163975, 455.4861111111111, V
164221, 456.1694444444444, N
164446, 456.7944444444444, N
164741, 457.6138888888889, N
165015, 458.375, N
165281, 459.1138888888889, N
165494, 459.7055555555556, N
165694, 460.2611111111111, N
165928, 460.9111111111111, N
166189, 461.6361111111111, N
166469, 462.4138888888889, N
166685, 463.0138888888889, N
166883, 463.56388888888887, N
167127, 464.2416666666667, N
167377, 464.93611111111113, N
167624, 465.6222222222222, N
167894, 466.3722222222222, N
168196, 467.2111111111111, N
168444, 467.9, N
168685, 468.56944444444446, N
168952, 469.31111111111113, N
169218, 470.05, N
169450, 470.69444444444446, N
169714, 471.4277777777778, N
170053, 472.36944444444447, N
170222, 472.8388888888889, V
170471, 473.53055555555557, N
170603, 473.89722222222224, V
170855, 474.59722222222223, N
171117, 475.325, N
171380, 476.05555555555554, N
171592, 476.64444444444445, N
171828, 477.3, N
172098, 478.05, N
172359, 478.775, N
172571, 479.3638888888889, N
172816, 480.0444444444444, N
173041, 480.6694444444444, N
173291, 481.3638888888889, N
173594, 482.2055555555556, N
173844, 482.9, N
174187, 483.85277777777776, N
174590, 484.97222222222223, N
174841, 485.6694444444444, N
175108, 486.4111111111111, N
175371, 487.14166666666665, N
175604, 487.7888888888889, N
175906, 488.6277777777778, N
176168, 489.35555555555555, N
176404, 490.0111111111111, N
176603, 490.56388888888887, N
176723, 490.89722222222224, V
176963, 491.56388888888887, N
177145, 492.06944444444446, N
177400, 492.77777777777777, N
177703, 493.61944444444447, N
177983, 494.39722222222224, N
178232, 495.0888888888889, N
178492, 495.81111111111113, N
178747, 496.51944444444445, N
178935, 497.0416666666667, N
179273, 497.98055555555555, N
179499, 498.60833333333335, N
179648, 499.02222222222224, a
179936, 499.8222222222222, N
180189, 500.525, N
180452, 501.25555555555553, N
180680, 501.8888888888889, N
180965, 502.68055555555554, N
181213, 503.36944444444447, N
181441, 504.0027777777778, N
181642, 504.56111111111113, N
181865, 505.18055555555554, N
182159, 505.9972222222222, N
182453, 506.81388888888887, N
182748, 507.6333333333333, N
182982, 508.28333333333336, N
183195, 508.875, N
183433, 509.5361111111111, N
183683, 510.23055555555555, N
183947, 510.9638888888889, N
184223, 511.73055555555555, N
184451, 512.3638888888889, N
184719, 513.1083333333333, N
184966, 513.7944444444445, N
185120, 514.2222222222222, V
185459, 515.1638888888889, N
185622, 515.6166666666667, V
185887, 516.3527777777778, N
186185, 517.1805555555555, N
186469, 517.9694444444444, N
186727, 518.6861111111111, N
186973, 519.3694444444444, N
187199, 519.9972222222223, N
187405, 520.5694444444445, N
187644, 521.2333333333333, N
187890, 521.9166666666666, N
188127, 522.575, N
188384, 523.2888888888889, N
188675, 524.0972222222222, N
188912, 524.7555555555556, N
189195, 525.5416666666666, N
189454, 526.2611111111111, N
189677, 526.8805555555556, N
189969, 527.6916666666667, N
190209, 528.3583333333333, N
190430, 528.9722222222222, N
190678, 529.6611111111112, N
190940, 530.3888888888889, N
191206, 531.1277777777777, N
191491, 531.9194444444445, N
191764, 532.6777777777778, N
192036, 533.4333333333333, N
192276, 534.1, N
192503, 534.7305555555556, N
192780, 535.5, N
193066, 536.2944444444445, N
193300, 536.9444444444445, N
193546, 537.6277777777777, N
193764, 538.2333333333333, N
193977, 538.825, N
194096, 539.1555555555556, V
194427, 540.075, N
194641, 540.6694444444445, F
194930, 541.4722222222222, N
195172, 542.1444444444444, N
195398, 542.7722222222222, N
195658, 543.4944444444444, N
195920, 544.2222222222222, N
196137, 544.825, N
196334, 545.3722222222223, N
196588, 546.0777777777778, N
196845, 546.7916666666666, N
197103, 547.5083333333333, N
197375, 548.2638888888889, N
197603, 548.8972222222222, N
197830, 549.5277777777778, F
198077, 550.2138888888888, N
198291, 550.8083333333333, N
198437, 551.2138888888888, V
198735, 552.0416666666666, N
198956, 552.6555555555556, N
199206, 553.35, N
199444, 554.0111111111111, N
199709, 554.7472222222223, N
199940, 555.3888888888889, N
200202, 556.1166666666667, N
200446, 556.7944444444445, N
200692, 557.4777777777778, N
200919, 558.1083333333333, N
201041, 558.4472222222222, V
201288, 559.1333333333333, N
201524, 559.7888888888889, N
201795, 560.5416666666666, N
202037, 561.2138888888888, N
202159, 561.5527777777778, V
202482, 562.45, N
202699, 563.0527777777778, N
202926, 563.6833333333333, N
203174, 564.3722222222223, N
203397, 564.9916666666667, N
203667, 565.7416666666667, N
203946, 566.5166666666667, N
204186, 567.1833333333333, N
204397, 567.7694444444444, N
204623, 568.3972222222222, N
204873, 569.0916666666667, N
205137, 569.825, N
205357, 570.4361111111111, N
205578, 571.05, N
205802, 571.6722222222222, N
206066, 572.4055555555556, N
206318, 573.1055555555556, N
206572, 573.8111111111111, N
206787, 574.4083333333333, N
207030, 575.0833333333334, N
207234, 575.65, N
207472, 576.3111111111111, N
207788, 577.1888888888889, N
208061, 577.9472222222222, N
208325, 578.6805555555555, N
208598, 579.4388888888889, N
208875, 580.2083333333334, N
209118, 580.8833333333333, N
209339, 581.4972222222223, N
209588, 582.1888888888889, N
209844, 582.9, N
210171, 583.8083333333333, N
210420, 584.5, N
210677, 585.2138888888888, N
210948, 585.9666666666667, N
211204, 586.6777777777778, N
211439, 587.3305555555555, N
211782, 588.2833333333333, N
212029, 588.9694444444444, N
212252, 589.5888888888888, N
212502, 590.2833333333333, N
212795, 591.0972222222222, N
213153, 592.0916666666667, N
213465, 592.9583333333334, N
213741, 593.725, N
214000, 594.4444444444445, N
214221, 595.0583333333333, N
214480, 595.7777777777778, N
214793, 596.6472222222222, N
215058, 597.3833333333333, N
215288, 598.0222222222222, N
215486, 598.5722222222222, N
215717, 599.2138888888888, N
216022, 600.0611111111111, N
216091, 600.2527777777777, +
216161, 600.4472222222222, V
216416, 601.1555555555556, N
216657, 601.825, N
216785, 602.1805555555555, V
217080, 603.0, N
217294, 603.5944444444444, N
217547, 604.2972222222222, V
217846, 605.1277777777777, N
218046, 605.6833333333333, N
218274, 606.3166666666667, V
218413, 606.7027777777778, V
218539, 607.0527777777778, +
218666, 607.4055555555556, N
218922, 608.1166666666667, N
219162, 608.7833333333333, N
219414, 609.4833333333333, N
219533, 609.8138888888889, V
219871, 610.7527777777777, N
220086, 611.35, N
220278, 611.8833333333333, N
220445, 612.3472222222222, N
220676, 612.9888888888889, N
220959, 613.775, N
221237, 614.5472222222222, N
221517, 615.325, N
221786, 616.0722222222222, N
221994, 616.65, N
222251, 617.3638888888889, N
222451, 617.9194444444445, N
222665, 618.5138888888889, N
222826, 618.9611111111111, a
222947, 619.2972222222222, V
223259, 620.1638888888889, N
223512, 620.8666666666667, N
223759, 621.5527777777778, N
224023, 622.2861111111112, N
224263, 622.9527777777778, N
224480, 623.5555555555555, N
224734, 624.2611111111111, N
224998, 624.9944444444444, N
225217, 625.6027777777778, N
225477, 626.325, N
225733, 627.0361111111112, N
226041, 627.8916666666667, N
226319, 628.6638888888889, N
226563, 629.3416666666667, N
226815, 630.0416666666666, N
227077, 630.7694444444444, N
227370, 631.5833333333334, N
227606, 632.2388888888889, N
227942, 633.1722222222222, N
228154, 633.7611111111111, N
228408, 634.4666666666667, N
228670, 635.1944444444445, N
228899, 635.8305555555555, N
229096, 636.3777777777777, N
229332, 637.0333333333333, N
229588, 637.7444444444444, N
229858, 638.4944444444444, N
230101, 639.1694444444445, N
230310, 639.75, N
230529, 640.3583333333333, N
230724, 640.9, N
230976, 641.6, N
231193, 642.2027777777778, N
231384, 642.7333333333333, N
231530, 643.1388888888889, V
231784, 643.8444444444444, N
232016, 644.4888888888889, N
232242, 645.1166666666667, N
232491, 645.8083333333333, N
232686, 646.35, N
232880, 646.8888888888889, N
233103, 647.5083333333333, N
233351, 648.1972222222222, N
233611, 648.9194444444445, N
233876, 649.6555555555556, N
234115, 650.3194444444445, N
234377, 651.0472222222222, N
234621, 651.725, N
234865, 652.4027777777778, N
235059, 652.9416666666667, N
235267, 653.5194444444444, N
235501, 654.1694444444445, N
235858, 655.1611111111112, N
236095, 655.8194444444445, V
236409, 656.6916666666667, N
236702, 657.5055555555556, N
237000, 658.3333333333334, N
237229, 658.9694444444444, N
237464, 659.6222222222223, N
237713, 660.3138888888889, N
237965, 661.0138888888889, N
238280, 661.8888888888889, N
238558, 662.6611111111112, N
238809, 663.3583333333333, N
239045, 664.0138888888889, N
239280, 664.6666666666666, N
239516, 665.3222222222222, N
239744, 665.9555555555555, N
239934, 666.4833333333333, N
240172, 667.1444444444444, N
240409, 667.8027777777778, N
240644, 668.4555555555555, N
240933, 669.2583333333333, N
241202, 670.0055555555556, N
241435, 670.6527777777778, N
241666, 671.2944444444445, N
241916, 671.9888888888889, N
242118, 672.55, N
242242, 672.8944444444444, V
242569, 673.8027777777778, N
242845, 674.5694444444445, N
243149, 675.4138888888889, N
243410, 676.1388888888889, N
243634, 676.7611111111111, N
243835, 677.3194444444445, N
244123, 678.1194444444444, N
244381, 678.8361111111111, N
244598, 679.4388888888889, N
244896, 680.2666666666667, N
245134, 680.9277777777778, N
245338, 681.4944444444444, N
245592, 682.2, N
245817, 682.825, N
246000, 683.3333333333334, V
246283, 684.1194444444444, N
246512, 684.7555555555556, N
246782, 685.5055555555556, N
247112, 686.4222222222222, N
247347, 687.075, N
247668, 687.9666666666667, N
247927, 688.6861111111111, N
248210, 689.4722222222222, N
248372, 689.9222222222222, V
248640, 690.6666666666666, N
248885, 691.3472222222222, N
249214, 692.2611111111111, N
249478, 692.9944444444444, N
249696, 693.6, N
249984, 694.4, N
250220, 695.0555555555555, N
250458, 695.7166666666667, N
250709, 696.4138888888889, N
250954, 697.0944444444444, N
251206, 697.7944444444445, N
251499, 698.6083333333333, N
251745, 699.2916666666666, N
252001, 700.0027777777777, N
252236, 700.6555555555556, N
252480, 701.3333333333334, N
252719, 701.9972222222223, N
252968, 702.6888888888889, N
253210, 703.3611111111111, N
253456, 704.0444444444445, N
253699, 704.7194444444444, N
253924, 705.3444444444444, N
254185, 706.0694444444445, N
254430, 706.75, N
254648, 707.3555555555556, N
254911, 708.0861111111111, N
255143, 708.7305555555556, N
255456, 709.6, N
255735, 710.375, N
255971, 711.0305555555556, N
256179, 711.6083333333333, N
256454, 712.3722222222223, N
256721, 713.1138888888889, N
256942, 713.7277777777778, N
257172, 714.3666666666667, N
257427, 715.075, N
257661, 715.725, N
257906, 716.4055555555556, N
258176, 717.1555555555556, N
258406, 717.7944444444445, N
258648, 718.4666666666667, N
258876, 719.1, N
259118, 719.7722222222222, N
259375, 720.4861111111111, N
259606, 721.1277777777777, N
259817, 721.7138888888888, N
260065, 722.4027777777778, N
260329, 723.1361111111111, N
260576, 723.8222222222222, N
260801, 724.4472222222222, N
261025, 725.0694444444445, N
261279, 725.775, N
261530, 726.4722222222222, N
261722, 727.0055555555556, N
261946, 727.6277777777777, N
262157, 728.2138888888888, N
262281, 728.5583333333333, V
262537, 729.2694444444444, N
262691, 729.6972222222222, V
262935, 730.375, N
263199, 731.1083333333333, N
263414, 731.7055555555555, N
263669, 732.4138888888889, N
263943, 733.175, N
264224, 733.9555555555555, N
264503, 734.7305555555556, N
264751, 735.4194444444445, N
265015, 736.1527777777778, N
265216, 736.7111111111111, N
265449, 737.3583333333333, N
265667, 737.9638888888888, N
265912, 738.6444444444444, N
266253, 739.5916666666667, N
266508, 740.3, N
266728, 740.9111111111112, N
266981, 741.6138888888889, N
267224, 742.2888888888889, N
267538, 743.1611111111112, N
267795, 743.875, N
268119, 744.775, N
268393, 745.5361111111112, N
268609, 746.1361111111111, N
268893, 746.925, N
269130, 747.5833333333334, N
269406, 748.35, N
269627, 748.9638888888888, N
269876, 749.6555555555556, N
270122, 750.3388888888888, N
270363, 751.0083333333333, N
270572, 751.5888888888888, N
270819, 752.275, N
271138, 753.1611111111112, N
271386, 753.85, N
271620, 754.5, N
271846, 755.1277777777777, N
272087, 755.7972222222222, N
272321, 756.4472222222222, N
272556, 757.1, N
272802, 757.7833333333333, N
273032, 758.4222222222222, N
273327, 759.2416666666667, N
273563, 759.8972222222222, N
273691, 760.2527777777777, V
273938, 760.9388888888889, N
274199, 761.6638888888889, N
274460, 762.3888888888889, N
274754, 763.2055555555555, N
275027, 763.9638888888888, N
275264, 764.6222222222223, N
275564, 765.4555555555555, N
275819, 766.1638888888889, N
276040, 766.7777777777778, N
276257, 767.3805555555556, N
276541, 768.1694444444445, N
276798, 768.8833333333333, N
277060, 769.6111111111111, N
277311, 770.3083333333333, N
277520, 770.8888888888889, N
277725, 771.4583333333334, V
277849, 771.8027777777778, a
277983, 772.175, N
278199, 772.775, N
278421, 773.3916666666667, N
278677, 774.1027777777778, N
278924, 774.7888888888889, N
279167, 775.4638888888888, N
279392, 776.0888888888888, N
279587, 776.6305555555556, N
279823, 777.2861111111112, N
280020, 777.8333333333334, V
280336, 778.7111111111111, N
280503, 779.175, V
280748, 779.8555555555556, N
280997, 780.5472222222222, N
281255, 781.2638888888889, N
281500, 781.9444444444445, N
281759, 782.6638888888889, N
281989, 783.3027777777778, N
282222, 783.95, N
282495, 784.7083333333334, N
282704, 785.2888888888889, N
282964, 786.0111111111111, N
283178, 786.6055555555556, N
283398, 787.2166666666667, N
283680, 788.0, N
283946, 788.7388888888889, N
284237, 789.5472222222222, N
284533, 790.3694444444444, N
284813, 791.1472222222222, N
285068, 791.8555555555556, N
285287, 792.4638888888888, N
285518, 793.1055555555556, N
285767, 793.7972222222222, V
286040, 794.5555555555555, N
286286, 795.2388888888889, N
286558, 795.9944444444444, N
286823, 796.7305555555556, N
287058, 797.3833333333333, N
287206, 797.7944444444445, V
287385, 798.2916666666666, V
287622, 798.95, N
287854, 799.5944444444444, N
288091, 800.2527777777777, N
288304, 800.8444444444444, N
288514, 801.4277777777778, V
288623, 801.7305555555556, V
288753, 802.0916666666667, N
288924, 802.5666666666667, V
289052, 802.9222222222222, V
289380, 803.8333333333334, N
289607, 804.4638888888888, N
289841, 805.1138888888889, N
290125, 805.9027777777778, N
290390, 806.6388888888889, N
290639, 807.3305555555555, N
290842, 807.8944444444444, N
291139, 808.7194444444444, N
291443, 809.5638888888889, N
291675, 810.2083333333334, N
291915, 810.875, N
292195, 811.6527777777778, N
292443, 812.3416666666667, N
292780, 813.2777777777778, N
293038, 813.9944444444444, N
293285, 814.6805555555555, N
293520, 815.3333333333334, N
293779, 816.0527777777778, N
293994, 816.65, N
294261, 817.3916666666667, N
294498, 818.05, N
294753, 818.7583333333333, N
295047, 819.575, N
295311, 820.3083333333333, N
295569, 821.025, N
295797, 821.6583333333333, N
296032, 822.3111111111111, N
296283, 823.0083333333333, N
296565, 823.7916666666666, N
296827, 824.5194444444444, N
297107, 825.2972222222222, N
297335, 825.9305555555555, N
297565, 826.5694444444445, N
297761, 827.1138888888889, N
297902, 827.5055555555556, V
298133, 828.1472222222222, N
298329, 828.6916666666667, N
298595, 829.4305555555555, N
298810, 830.0277777777778, N
298965, 830.4583333333334, V
299130, 830.9166666666666, V
299423, 831.7305555555556, N
299689, 832.4694444444444, N
299958, 833.2166666666667, N
300222, 833.95, N
300462, 834.6166666666667, N
300716, 835.3222222222222, N
300972, 836.0333333333333, N
301175, 836.5972222222222, N
301429, 837.3027777777778, N
301685, 838.0138888888889, N
301947, 838.7416666666667, N
302198, 839.4388888888889, N
302466, 840.1833333333333, N
302695, 840.8194444444445, N
302908, 841.4111111111112, N
302953, 841.5361111111112, ~
303063, 841.8416666666667, |
303150, 842.0833333333334, N
303400, 842.7777777777778, N
303520, 843.1111111111111, ~
303630, 843.4166666666666, N
303860, 844.0555555555555, ~
303960, 844.3333333333334, N
304181, 844.9472222222222, N
304415, 845.5972222222222, N
304657, 846.2694444444444, N
304933, 847.0361111111112, N
305189, 847.7472222222223, N
305413, 848.3694444444444, N
305684, 849.1222222222223, N
305912, 849.7555555555556, N
306118, 850.3277777777778, V
306390, 851.0833333333334, N
306544, 851.5111111111111, a
306775, 852.1527777777778, N
307021, 852.8361111111111, N
307276, 853.5444444444445, N
307539, 854.275, N
307814, 855.0388888888889, N
308069, 855.7472222222223, N
308319, 856.4416666666667, N
308532, 857.0333333333333, N
308865, 857.9583333333334, N
309086, 858.5722222222222, N
309334, 859.2611111111111, N
309590, 859.9722222222222, N
309827, 860.6305555555556, N
310082, 861.3388888888888, N
310353, 862.0916666666667, N
310607, 862.7972222222222, N
310871, 863.5305555555556, N
311040, 864.0, a
311299, 864.7194444444444, N
311629, 865.6361111111111, N
311884, 866.3444444444444, N
312114, 866.9833333333333, N
312366, 867.6833333333333, N
312604, 868.3444444444444, N
312833, 868.9805555555556, N
313079, 869.6638888888889, N
313332, 870.3666666666667, N
313557, 870.9916666666667, N
313829, 871.7472222222223, N
314097, 872.4916666666667, N
314384, 873.2888888888889, N
314620, 873.9444444444445, N
314843, 874.5638888888889, N
315101, 875.2805555555556, N
315326, 875.9055555555556, N
315560, 876.5555555555555, N
315844, 877.3444444444444, N
316018, 877.8277777777778, V
316268, 878.5222222222222, N
316397, 878.8805555555556, V
316665, 879.625, N
316911, 880.3083333333333, N
317172, 881.0333333333333, N
317474, 881.8722222222223, N
317706, 882.5166666666667, N
317954, 883.2055555555555, N
318163, 883.7861111111112, N
318405, 884.4583333333334, N
318620, 885.0555555555555, N
318884, 885.7888888888889, N
319141, 886.5027777777777, N
319390, 887.1944444444445, N
319637, 887.8805555555556, N
319881, 888.5583333333333, N
320139, 889.275, N
320386, 889.9611111111111, N
320659, 890.7194444444444, N
320948, 891.5222222222222, N
321127, 892.0194444444444, N
321365, 892.6805555555555, N
321653, 893.4805555555556, N
321877, 894.1027777777778, N
322109, 894.7472222222223, N
322420, 895.6111111111111, N
322694, 896.3722222222223, N
322900, 896.9444444444445, N
323161, 897.6694444444445, N
323480, 898.5555555555555, N
323716, 899.2111111111111, N
323962, 899.8944444444444, N
324194, 900.5388888888889, N
324442, 901.2277777777778, N
324658, 901.8277777777778, N
324900, 902.5, N
325100, 903.0555555555555, N
325413, 903.925, N
325651, 904.5861111111111, N
325849, 905.1361111111111, N
326101, 905.8361111111111, N
326302, 906.3944444444444, N
326529, 907.025, N
326751, 907.6416666666667, F
327014, 908.3722222222223, N
327277, 909.1027777777778, N
327504, 909.7333333333333, N
327758, 910.4388888888889, N
327995, 911.0972222222222, N
328228, 911.7444444444444, N
328492, 912.4777777777778, N
328818, 913.3833333333333, N
329084, 914.1222222222223, N
329322, 914.7833333333333, N
329564, 915.4555555555555, N
329780, 916.0555555555555, N
330000, 916.6666666666666, N
330219, 917.275, N
330418, 917.8277777777778, N
330663, 918.5083333333333, N
330876, 919.1, N
331104, 919.7333333333333, N
331384, 920.5111111111111, N
331672, 921.3111111111111, N
331903, 921.9527777777778, N
332157, 922.6583333333333, N
332398, 923.3277777777778, N
332611, 923.9194444444445, N
332888, 924.6888888888889, N
333110, 925.3055555555555, N
333407, 926.1305555555556, N
333568, 926.5777777777778, V
333854, 927.3722222222223, N
334074, 927.9833333333333, N
334306, 928.6277777777777, N
334568, 929.3555555555556, N
334818, 930.05, N
334950, 930.4166666666666, V
335189, 931.0805555555555, N
335425, 931.7361111111111, N
335673, 932.425, N
335966, 933.2388888888889, N
336215, 933.9305555555555, N
336459, 934.6083333333333, N
336745, 935.4027777777778, N
336947, 935.9638888888888, N
337063, 936.2861111111112, V
337348, 937.0777777777778, N
337606, 937.7944444444445, N
337900, 938.6111111111111, N
338154, 939.3166666666667, N
338437, 940.1027777777778, N
338655, 940.7083333333334, N
338878, 941.3277777777778, N
339120, 942.0, N
339357, 942.6583333333333, N
339479, 942.9972222222223, V
339859, 944.0527777777778, N
340136, 944.8222222222222, N
340355, 945.4305555555555, N
340479, 945.775, V
340778, 946.6055555555556, N
341004, 947.2333333333333, N
341223, 947.8416666666667, N
341450, 948.4722222222222, N
341636, 948.9888888888889, N
341898, 949.7166666666667, N
342165, 950.4583333333334, N
342412, 951.1444444444444, N
342607, 951.6861111111111, N
342850, 952.3611111111111, N
343094, 953.0388888888889, N
343423, 953.9527777777778, N
343642, 954.5611111111111, N
343881, 955.225, N
344103, 955.8416666666667, N
344343, 956.5083333333333, N
344572, 957.1444444444444, N
344825, 957.8472222222222, N
345088, 958.5777777777778, N
345349, 959.3027777777778, N
345494, 959.7055555555555, ~
345585, 959.9583333333334, N
345673, 960.2027777777778, ~
345775, 960.4861111111111, N
345985, 961.0694444444445, N
346090, 961.3611111111111, ~
346350, 962.0833333333334, ~
346520, 962.5555555555555, N
346674, 962.9833333333333, V
346910, 963.6388888888889, N
347164, 964.3444444444444, N
347392, 964.9777777777778, N
347615, 965.5972222222222, N
347806, 966.1277777777777, N
348035, 966.7638888888889, N
348338, 967.6055555555556, N
348546, 968.1833333333333, N
348778, 968.8277777777778, N
349053, 969.5916666666667, N
349268, 970.1888888888889, N
349394, 970.5388888888889, a
349615, 971.1527777777778, ~
349744, 971.5111111111111, N
349899, 971.9416666666667, V
350207, 972.7972222222222, N
350378, 973.2722222222222, V
350645, 974.0138888888889, N
350916, 974.7666666666667, N
351160, 975.4444444444445, N
351371, 976.0305555555556, N
351638, 976.7722222222222, N
351908, 977.5222222222222, N
352115, 978.0972222222222, N
352367, 978.7972222222222, N
352599, 979.4416666666667, N
352905, 980.2916666666666, N
352982, 980.5055555555556, ~
353142, 980.95, N
353397, 981.6583333333333, N
353651, 982.3638888888889, N
353884, 983.0111111111111, N
353969, 983.2472222222223, ~
354154, 983.7611111111111, N
354394, 984.4277777777778, N
354520, 984.7777777777778, ~
354596, 984.9888888888889, N
354766, 985.4611111111111, ~
354854, 985.7055555555555, N
355093, 986.3694444444444, N
355407, 987.2416666666667, N
355672, 987.9777777777778, N
355890, 988.5833333333334, N
356137, 989.2694444444444, N
356365, 989.9027777777778, N
356605, 990.5694444444445, N
356845, 991.2361111111111, N
357080, 991.8888888888889, N
357300, 992.5, N
357594, 993.3166666666667, N
357880, 994.1111111111111, N
358135, 994.8194444444445, N
358388, 995.5222222222222, N
358609, 996.1361111111111, N
358816, 996.7111111111111, N
359053, 997.3694444444444, N
359287, 998.0194444444444, N
359551, 998.7527777777777, N
359805, 999.4583333333334, N
360057, 1000.1583333333333, N
360309, 1000.8583333333333, N
360453, 1001.2583333333333, a
360722, 1002.0055555555556, N
360929, 1002.5805555555555, N
361188, 1003.3, N
361537, 1004.2694444444444, N
361816, 1005.0444444444445, N
362072, 1005.7555555555556, N
362412, 1006.7, N
362607, 1007.2416666666667, N
362855, 1007.9305555555555, N
363113, 1008.6472222222222, N
363382, 1009.3944444444444, N
363630, 1010.0833333333334, N
363913, 1010.8694444444444, N
364162, 1011.5611111111111, N
364417, 1012.2694444444444, N
364639, 1012.8861111111111, N
364893, 1013.5916666666667, N
365133, 1014.2583333333333, N
365380, 1014.9444444444445, N
365640, 1015.6666666666666, N
365878, 1016.3277777777778, N
366090, 1016.9166666666666, N
366154, 1017.0944444444444, +
366218, 1017.2722222222222, V
366551, 1018.1972222222222, N
366710, 1018.6388888888889, V
367040, 1019.5555555555555, N
367203, 1020.0083333333333, V
367320, 1020.3333333333334, +
367437, 1020.6583333333333, N
367668, 1021.3, N
367814, 1021.7055555555555, V
368074, 1022.4277777777778, N
368237, 1022.8805555555556, V
368491, 1023.5861111111111, N
368787, 1024.4083333333333, N
368862, 1024.6166666666666, +
368938, 1024.8277777777778, V
369264, 1025.7333333333333, N
369424, 1026.1777777777777, V
369712, 1026.9777777777779, N
369893, 1027.4805555555556, V
370012, 1027.8111111111111, +
370131, 1028.1416666666667, N
370398, 1028.8833333333334, N
370617, 1029.4916666666666, N
370893, 1030.2583333333334, N
371172, 1031.0333333333333, N
371432, 1031.7555555555555, N
371644, 1032.3444444444444, N
371900, 1033.0555555555557, N
372183, 1033.8416666666667, N
372459, 1034.6083333333333, N
372718, 1035.3277777777778, N
372963, 1036.0083333333334, N
373221, 1036.725, N
373469, 1037.4138888888888, N
373732, 1038.1444444444444, N
373907, 1038.6305555555555, N
374143, 1039.286111111111, N
374443, 1040.1194444444445, N
374708, 1040.8555555555556, N
374964, 1041.5666666666666, N
375246, 1042.35, N
375561, 1043.225, N
375821, 1043.9472222222223, N
376061, 1044.6138888888888, N
376330, 1045.361111111111, N
376632, 1046.2, N
376850, 1046.8055555555557, N
377111, 1047.5305555555556, N
377245, 1047.9027777777778, V
377475, 1048.5416666666667, N
377715, 1049.2083333333333, N
377944, 1049.8444444444444, V
378162, 1050.45, N
378278, 1050.7722222222221, V
378529, 1051.4694444444444, N
378813, 1052.2583333333334, N
379104, 1053.0666666666666, N
379374, 1053.8166666666666, N
379560, 1054.3333333333333, N
379814, 1055.0388888888888, N
380044, 1055.6777777777777, F
380261, 1056.2805555555556, N
380510, 1056.9722222222222, N
380806, 1057.7944444444445, N
380954, 1058.2055555555555, a
381191, 1058.8638888888888, N
381438, 1059.55, N
381698, 1060.2722222222221, N
381926, 1060.9055555555556, N
382115, 1061.4305555555557, N
382353, 1062.0916666666667, N
382613, 1062.8138888888889, N
382883, 1063.5638888888889, N
383197, 1064.4361111111111, N
383482, 1065.2277777777779, N
383740, 1065.9444444444443, N
384012, 1066.7, N
384278, 1067.4388888888889, N
384528, 1068.1333333333334, N
384754, 1068.7611111111112, N
384951, 1069.3083333333334, N
385192, 1069.9777777777779, N
385458, 1070.7166666666667, N
385715, 1071.4305555555557, N
386039, 1072.3305555555555, N
386380, 1073.2777777777778, N
386624, 1073.9555555555555, N
386864, 1074.6222222222223, N
387120, 1075.3333333333333, N
387407, 1076.1305555555555, N
387689, 1076.9138888888888, V
387941, 1077.6138888888888, N
388201, 1078.3361111111112, N
388393, 1078.8694444444445, V
388698, 1079.7166666666667, F
388959, 1080.4416666666666, N
389195, 1081.0972222222222, N
389350, 1081.5277777777778, V
389687, 1082.463888888889, N
389830, 1082.861111111111, +
389865, 1082.9583333333333, V
390011, 1083.3638888888888, V
390238, 1083.9944444444445, V
390493, 1084.7027777777778, V
390598, 1084.9944444444445, V
390790, 1085.5277777777778, V
390958, 1085.9944444444445, +
391087, 1086.3527777777779, N
391243, 1086.786111111111, V
391610, 1087.8055555555557, N
391773, 1088.2583333333334, V
392027, 1088.963888888889, N
392297, 1089.713888888889, N
392580, 1090.5, N
392699, 1090.8305555555555, +
392818, 1091.161111111111, V
393094, 1091.9277777777777, N
393320, 1092.5555555555557, V
393636, 1093.4333333333334, N
393891, 1094.1416666666667, V
394037, 1094.5472222222222, +
394183, 1094.9527777777778, N
394440, 1095.6666666666667, F
394669, 1096.3027777777777, N
394927, 1097.0194444444444, N
395177, 1097.713888888889, N
395434, 1098.4277777777777, V
395675, 1099.0972222222222, N
395906, 1099.7388888888888, N
396198, 1100.55, N
396466, 1101.2944444444445, F
396707, 1101.963888888889, N
396935, 1102.5972222222222, N
397020, 1102.8333333333333, +
397105, 1103.0694444444443, V
397332, 1103.7, N
397530, 1104.25, V
397806, 1105.0166666666667, N
397989, 1105.525, V
398307, 1106.4083333333333, N
398467, 1106.8527777777779, V
398678, 1107.4388888888889, V
399003, 1108.3416666666667, N
399168, 1108.8, V
399289, 1109.1361111111112, V
399600, 1110.0, N
399852, 1110.7, V
400224, 1111.7333333333333, N
400396, 1112.2111111111112, V
400544, 1112.6222222222223, +
400692, 1113.0333333333333, N
401037, 1113.9916666666666, N
401310, 1114.75, N
401571, 1115.475, N
401713, 1115.8694444444445, V
401939, 1116.4972222222223, N
402175, 1117.1527777777778, N
402468, 1117.9666666666667, N
402760, 1118.7777777777778, N
403016, 1119.4888888888888, N
403278, 1120.2166666666667, N
403546, 1120.9611111111112, N
403776, 1121.6, N
404015, 1122.263888888889, N
404217, 1122.825, N
404442, 1123.45, N
404733, 1124.2583333333334, N
405005, 1125.013888888889, N
405274, 1125.7611111111112, N
405546, 1126.5166666666667, N
405826, 1127.2944444444445, N
406028, 1127.8555555555556, N
406270, 1128.5277777777778, N
406553, 1129.3138888888889, N
406822, 1130.0611111111111, N
407160, 1131.0, N
407382, 1131.6166666666666, N
407599, 1132.2194444444444, N
407801, 1132.7805555555556, N
408008, 1133.3555555555556, N
408299, 1134.1638888888888, N
408589, 1134.9694444444444, N
408822, 1135.6166666666666, N
409046, 1136.2388888888888, N
409307, 1136.963888888889, F
409571, 1137.6972222222223, N
409801, 1138.3361111111112, N
410070, 1139.0833333333333, N
410325, 1139.7916666666667, N
410604, 1140.5666666666666, N
410883, 1141.3416666666667, N
411111, 1141.975, N
411341, 1142.6138888888888, N
411472, 1142.9777777777779, V
411749, 1143.7472222222223, N
412020, 1144.5, N
412302, 1145.2833333333333, N
412511, 1145.8638888888888, N
412814, 1146.7055555555555, N
413092, 1147.4777777777779, N
413309, 1148.0805555555555, N
413523, 1148.675, N
413796, 1149.4333333333334, N
414054, 1150.15, N
414320, 1150.888888888889, N
414563, 1151.5638888888889, N
414785, 1152.1805555555557, N
415027, 1152.8527777777779, N
415237, 1153.4361111111111, N
415519, 1154.2194444444444, N
415770, 1154.9166666666667, N
415972, 1155.4777777777779, N
416202, 1156.1166666666666, N
416469, 1156.8583333333333, N
416704, 1157.5111111111112, N
416941, 1158.1694444444445, N
417058, 1158.4944444444445, a
417389, 1159.4138888888888, N
417641, 1160.1138888888888, N
417944, 1160.9555555555555, N
418179, 1161.6083333333333, N
418429, 1162.3027777777777, N
418555, 1162.6527777777778, V
418881, 1163.5583333333334, N
419142, 1164.2833333333333, N
419369, 1164.9138888888888, N
419598, 1165.55, N
419860, 1166.2777777777778, N
420120, 1167.0, N
420406, 1167.7944444444445, N
420653, 1168.4805555555556, N
420921, 1169.225, N
421163, 1169.8972222222221, N
421427, 1170.6305555555555, N
421738, 1171.4944444444445, N
421956, 1172.1, N
422233, 1172.8694444444445, N
422508, 1173.6333333333334, N
422763, 1174.3416666666667, N
423054, 1175.15, N
423328, 1175.911111111111, N
423577, 1176.6027777777779, N
423859, 1177.3861111111112, N
424131, 1178.1416666666667, N
424414, 1178.9277777777777, N
424611, 1179.475, N
424882, 1180.2277777777779, N
425141, 1180.9472222222223, N
425366, 1181.5722222222223, N
425584, 1182.1777777777777, N
425717, 1182.5472222222222, V
426024, 1183.4, N
426195, 1183.875, V
426533, 1184.8138888888889, V
426855, 1185.7083333333333, N
427101, 1186.3916666666667, N
427354, 1187.0944444444444, N
427604, 1187.7888888888888, N
427851, 1188.475, N
428091, 1189.1416666666667, N
428245, 1189.5694444444443, a
428575, 1190.486111111111, N
428841, 1191.225, N
429092, 1191.9222222222222, N
429306, 1192.5166666666667, N
429515, 1193.0972222222222, N
429733, 1193.7027777777778, N
429927, 1194.2416666666666, N
430152, 1194.8666666666666, N
430446, 1195.6833333333334, N
430715, 1196.4305555555557, N
430999, 1197.2194444444444, N
431321, 1198.1138888888888, N
431548, 1198.7444444444445, N
431762, 1199.338888888889, N
432001, 1200.0027777777777, N
432220, 1200.611111111111, N
432539, 1201.4972222222223, N
432785, 1202.1805555555557, N
433057, 1202.9361111111111, N
433331, 1203.6972222222223, N
433604, 1204.4555555555555, N
433852, 1205.1444444444444, N
434086, 1205.7944444444445, N
434335, 1206.486111111111, N
434616, 1207.2666666666667, N
434889, 1208.025, N
435090, 1208.5833333333333, V
435366, 1209.35, N
435572, 1209.9222222222222, N
435804, 1210.5666666666666, N
436038, 1211.2166666666667, N
436288, 1211.911111111111, N
436416, 1212.2666666666667, V
436642, 1212.8944444444444, N
436880, 1213.5555555555557, N
437139, 1214.275, N
437404, 1215.0111111111112, N
437646, 1215.6833333333334, N
437895, 1216.375, N
438149, 1217.0805555555555, N
438402, 1217.7833333333333, N
438658, 1218.4944444444445, N
438879, 1219.1083333333333, N
439102, 1219.7277777777779, N
439390, 1220.5277777777778, N
439718, 1221.4388888888889, N
439939, 1222.0527777777777, N
440156, 1222.6555555555556, N
440367, 1223.2416666666666, N
440488, 1223.5777777777778, V
440797, 1224.4361111111111, N
441011, 1225.0305555555556, N
441263, 1225.7305555555556, N
441526, 1226.4611111111112, N
441759, 1227.1083333333333, N
442057, 1227.9361111111111, N
442303, 1228.6194444444445, N
442518, 1229.2166666666667, N
442748, 1229.8555555555556, N
443000, 1230.5555555555557, N
443254, 1231.2611111111112, N
443480, 1231.888888888889, N
443738, 1232.6055555555556, N
443986, 1233.2944444444445, N
444257, 1234.0472222222222, N
444511, 1234.7527777777777, N
444747, 1235.4083333333333, N
444957, 1235.9916666666666, N
445158, 1236.55, N
445361, 1237.1138888888888, V
445714, 1238.0944444444444, N
445879, 1238.5527777777777, a
446167, 1239.3527777777779, N
446299, 1239.7194444444444, V
446552, 1240.4222222222222, N
446783, 1241.0638888888889, N
447003, 1241.675, N
447233, 1242.3138888888889, N
447485, 1243.013888888889, N
447729, 1243.6916666666666, N
447976, 1244.3777777777777, N
448232, 1245.088888888889, N
448514, 1245.8722222222223, N
448808, 1246.6888888888889, N
449075, 1247.4305555555557, N
449298, 1248.05, N
449529, 1248.6916666666666, N
449796, 1249.4333333333334, N
450084, 1250.2333333333333, N
450355, 1250.986111111111, N
450579, 1251.6083333333333, N
450829, 1252.3027777777777, N
451241, 1253.4472222222223, N
451497, 1254.1583333333333, N
451716, 1254.7666666666667, N
451959, 1255.4416666666666, N
452202, 1256.1166666666666, N
452458, 1256.8277777777778, N
452729, 1257.5805555555555, N
452957, 1258.213888888889, N
453216, 1258.9333333333334, N
453427, 1259.5194444444444, N
453683, 1260.2305555555556, N
453948, 1260.9666666666667, N
454242, 1261.7833333333333, N
454490, 1262.4722222222222, N
454685, 1263.013888888889, V
454953, 1263.7583333333334, N
455191, 1264.4194444444445, N
455488, 1265.2444444444445, N
455648, 1265.6888888888889, a
455753, 1265.9805555555556, V
456104, 1266.9555555555555, N
456362, 1267.6722222222222, N
456737, 1268.713888888889, N
456975, 1269.375, N
457201, 1270.0027777777777, N
457411, 1270.5861111111112, N
457617, 1271.1583333333333, N
457871, 1271.8638888888888, N
458106, 1272.5166666666667, N
458338, 1273.161111111111, N
458555, 1273.763888888889, N
458794, 1274.4277777777777, N
459029, 1275.0805555555555, N
459264, 1275.7333333333333, N
459495, 1276.375, N
459715, 1276.986111111111, N
459912, 1277.5333333333333, N
460115, 1278.0972222222222, N
460237, 1278.4361111111111, V
460558, 1279.3277777777778, N
460750, 1279.861111111111, N
461029, 1280.6361111111112, N
461297, 1281.3805555555555, N
461527, 1282.0194444444444, N
461784, 1282.7333333333333, N
461913, 1283.0916666666667, V
462275, 1284.0972222222222, N
462543, 1284.8416666666667, N
462688, 1285.2444444444445, V
462945, 1285.9583333333333, N
463209, 1286.6916666666666, N
463445, 1287.3472222222222, N
463719, 1288.1083333333333, N
463983, 1288.8416666666667, N
464247, 1289.575, N
464465, 1290.1805555555557, N
464777, 1291.0472222222222, N
465087, 1291.9083333333333, N
465302, 1292.5055555555555, N
465548, 1293.1888888888889, N
465816, 1293.9333333333334, N
466072, 1294.6444444444444, N
466343, 1295.3972222222221, N
466546, 1295.9611111111112, N
466778, 1296.6055555555556, N
467003, 1297.2305555555556, N
467248, 1297.911111111111, N
467469, 1298.525, N
467716, 1299.2111111111112, N
467843, 1299.5638888888889, V
468105, 1300.2916666666667, N
468376, 1301.0444444444445, N
468614, 1301.7055555555555, N
468855, 1302.375, N
469143, 1303.175, N
469438, 1303.9944444444445, N
469712, 1304.7555555555555, N
469978, 1305.4944444444445, N
470235, 1306.2083333333333, N
470473, 1306.8694444444445, N
470665, 1307.4027777777778, N
470885, 1308.013888888889, N
471107, 1308.6305555555555, N
471340, 1309.2777777777778, N
471586, 1309.9611111111112, N
471880, 1310.7777777777778, N
472197, 1311.6583333333333, N
472424, 1312.2888888888888, N
472613, 1312.8138888888889, N
472822, 1313.3944444444444, N
473066, 1314.0722222222223, N
473288, 1314.6888888888889, N
473492, 1315.2555555555555, N
473753, 1315.9805555555556, N
474031, 1316.7527777777777, N
474267, 1317.4083333333333, N
474513, 1318.0916666666667, N
474747, 1318.7416666666666, N
474968, 1319.3555555555556, N
475209, 1320.025, N
475449, 1320.6916666666666, N
475666, 1321.2944444444445, N
475914, 1321.9833333333333, N
476170, 1322.6944444444443, N
476407, 1323.3527777777779, N
476614, 1323.9277777777777, N
476867, 1324.6305555555555, N
477100, 1325.2777777777778, N
477326, 1325.9055555555556, N
477681, 1326.8916666666667, N
477929, 1327.5805555555555, N
478246, 1328.4611111111112, N
478475, 1329.0972222222222, N
478725, 1329.7916666666667, N
478949, 1330.4138888888888, N
479199, 1331.1083333333333, N
479405, 1331.6805555555557, N
479636, 1332.3222222222223, N
479879, 1332.9972222222223, N
480213, 1333.925, N
480400, 1334.4444444444443, V
480673, 1335.2027777777778, N
481003, 1336.1194444444445, N
481267, 1336.8527777777779, N
481486, 1337.4611111111112, N
481704, 1338.0666666666666, N
481919, 1338.6638888888888, N
482120, 1339.2222222222222, N
482363, 1339.8972222222221, N
482664, 1340.7333333333333, N
482959, 1341.5527777777777, N
483107, 1341.963888888889, V
483414, 1342.8166666666666, N
483579, 1343.275, V
483860, 1344.0555555555557, N
484073, 1344.6472222222221, N
484295, 1345.263888888889, N
484515, 1345.875, N
484770, 1346.5833333333333, N
484994, 1347.2055555555555, N
485307, 1348.075, N
485578, 1348.8277777777778, N
485833, 1349.536111111111, N
486066, 1350.1833333333334, N
486294, 1350.8166666666666, N
486571, 1351.5861111111112, N
486788, 1352.1888888888889, N
487046, 1352.9055555555556, N
487273, 1353.536111111111, N
487538, 1354.2722222222221, N
487772, 1354.9222222222222, N
487995, 1355.5416666666667, N
488321, 1356.4472222222223, N
488538, 1357.05, N
488773, 1357.7027777777778, N
488993, 1358.3138888888889, N
489257, 1359.0472222222222, N
489488, 1359.6888888888889, N
489778, 1360.4944444444445, N
490037, 1361.213888888889, N
490274, 1361.8722222222223, N
490504, 1362.5111111111112, N
490729, 1363.1361111111112, N
491011, 1363.9194444444445, N
491324, 1364.7888888888888, N
491663, 1365.7305555555556, N
491907, 1366.4083333333333, N
492177, 1367.1583333333333, N
492408, 1367.8, N
492786, 1368.85, V
493058, 1369.6055555555556, N
493184, 1369.9555555555555, V
493537, 1370.9361111111111, N
493802, 1371.6722222222222, N
494057, 1372.3805555555555, N
494278, 1372.9944444444445, N
494517, 1373.6583333333333, N
494765, 1374.3472222222222, N
494989, 1374.9694444444444, N
495199, 1375.5527777777777, N
495496, 1376.3777777777777, N
495852, 1377.3666666666666, N
496182, 1378.2833333333333, N
496449, 1379.025, N
496654, 1379.5944444444444, N
496792, 1379.9777777777779, V
497108, 1380.8555555555556, N
497348, 1381.5222222222221, N
497596, 1382.2111111111112, N
497850, 1382.9166666666667, N
497975, 1383.263888888889, V
498226, 1383.9611111111112, N
498439, 1384.5527777777777, N
498713, 1385.3138888888889, N
498958, 1385.9944444444445, N
499208, 1386.6888888888889, N
499428, 1387.3, N
499635, 1387.875, N
499869, 1388.525, N
500097, 1389.1583333333333, N
500340, 1389.8333333333333, N
500606, 1390.5722222222223, N
500866, 1391.2944444444445, N
501116, 1391.9888888888888, N
501375, 1392.7083333333333, N
501570, 1393.25, N
501821, 1393.9472222222223, N
502087, 1394.6861111111111, N
502339, 1395.3861111111112, N
502562, 1396.0055555555555, N
502781, 1396.6138888888888, N
503029, 1397.3027777777777, N
503214, 1397.8166666666666, N
503422, 1398.3944444444444, N
503643, 1399.0083333333334, N
503879, 1399.6638888888888, N
504105, 1400.2916666666667, N
504365, 1401.013888888889, N
504627, 1401.7416666666666, N
504857, 1402.3805555555555, N
505114, 1403.0944444444444, N
505402, 1403.8944444444444, N
505698, 1404.7166666666667, N
505899, 1405.275, N
506120, 1405.888888888889, N
506381, 1406.6138888888888, N
506607, 1407.2416666666666, N
506829, 1407.8583333333333, N
506964, 1408.2333333333333, V
507339, 1409.275, N
507589, 1409.9694444444444, N
507816, 1410.6, N
508067, 1411.2972222222222, N
508275, 1411.875, N
508524, 1412.5666666666666, N
508787, 1413.2972222222222, N
509118, 1414.2166666666667, N
509358, 1414.8833333333334, N
509578, 1415.4944444444445, N
509794, 1416.0944444444444, N
510025, 1416.736111111111, N
510274, 1417.4277777777777, N
510524, 1418.1222222222223, N
510791, 1418.8638888888888, N
511058, 1419.6055555555556, N
511305, 1420.2916666666667, N
511535, 1420.9305555555557, N
511765, 1421.5694444444443, N
511997, 1422.213888888889, N
512187, 1422.7416666666666, N
512312, 1423.088888888889, V
512557, 1423.7694444444444, N
512813, 1424.4805555555556, N
513063, 1425.175, N
513312, 1425.8666666666666, N
513605, 1426.6805555555557, N
513872, 1427.4222222222222, N
514210, 1428.361111111111, N
514442, 1429.0055555555555, N
514713, 1429.7583333333334, N
514957, 1430.4361111111111, N
515219, 1431.1638888888888, N
515442, 1431.7833333333333, N
515565, 1432.125, V
515823, 1432.8416666666667, N
516035, 1433.4305555555557, N
516252, 1434.0333333333333, N
516459, 1434.6083333333333, N
516708, 1435.3, N
516938, 1435.9388888888889, N
517185, 1436.625, N
517431, 1437.3083333333334, N
517697, 1438.0472222222222, N
517947, 1438.7416666666666, N
518198, 1439.4388888888889, N
518419, 1440.0527777777777, N
518676, 1440.7666666666667, N
518947, 1441.5194444444444, N
519210, 1442.25, N
519422, 1442.838888888889, N
519678, 1443.55, N
519941, 1444.2805555555556, N
520185, 1444.9583333333333, N
520435, 1445.6527777777778, N
520685, 1446.3472222222222, N
520938, 1447.05, N
521190, 1447.75, N
521473, 1448.536111111111, N
521726, 1449.2388888888888, N
521962, 1449.8944444444444, N
522179, 1450.4972222222223, N
522385, 1451.0694444444443, N
522631, 1451.7527777777777, N
522882, 1452.45, N
523121, 1453.1138888888888, N
523387, 1453.8527777777779, N
523649, 1454.5805555555555, N
523882, 1455.2277777777779, N
524120, 1455.888888888889, N
524451, 1456.8083333333334, N
524652, 1457.3666666666666, N
524839, 1457.8861111111112, V
525163, 1458.786111111111, N
525393, 1459.425, N
525655, 1460.1527777777778, N
525913, 1460.8694444444445, N
526173, 1461.5916666666667, N
526421, 1462.2805555555556, N
526658, 1462.9388888888889, N
526875, 1463.5416666666667, N
527126, 1464.2388888888888, N
527365, 1464.9027777777778, N
527567, 1465.463888888889, N
527863, 1466.286111111111, N
528114, 1466.9833333333333, N
528378, 1467.7166666666667, N
528582, 1468.2833333333333, N
528825, 1468.9583333333333, N
529092, 1469.7, N
529316, 1470.3222222222223, N
529551, 1470.975, N
529749, 1471.525, N
530025, 1472.2916666666667, N
530253, 1472.925, N
530506, 1473.6277777777777, N
530715, 1474.2083333333333, N
530964, 1474.9, N
531222, 1475.6166666666666, N
531439, 1476.2194444444444, N
531646, 1476.7944444444445, N
531896, 1477.4888888888888, N
532172, 1478.2555555555555, N
532424, 1478.9555555555555, N
532713, 1479.7583333333334, N
532994, 1480.5388888888888, N
533222, 1481.1722222222222, N
533444, 1481.7888888888888, N
533686, 1482.4611111111112, N
533930, 1483.138888888889, N
534183, 1483.8416666666667, N
534512, 1484.7555555555555, N
534751, 1485.4194444444445, N
534992, 1486.088888888889, N
535280, 1486.888888888889, N
535579, 1487.7194444444444, N
535817, 1488.3805555555555, N
536036, 1488.9888888888888, N
536251, 1489.5861111111112, N
536535, 1490.375, N
536794, 1491.0944444444444, N
537048, 1491.8, N
537313, 1492.536111111111, N
537578, 1493.2722222222221, N
537814, 1493.9277777777777, N
538082, 1494.6722222222222, N
538305, 1495.2916666666667, N
538591, 1496.0861111111112, N
538851, 1496.8083333333334, N
539081, 1497.4472222222223, N
539355, 1498.2083333333333, N
539572, 1498.8111111111111, N
539817, 1499.4916666666666, N
540096, 1500.2666666666667, N
540323, 1500.8972222222221, N
540553, 1501.536111111111, N
540782, 1502.1722222222222, N
541041, 1502.8916666666667, N
541302, 1503.6166666666666, N
541600, 1504.4444444444443, N
541814, 1505.0388888888888, N
542055, 1505.7083333333333, N
542254, 1506.2611111111112, N
542493, 1506.925, N
542889, 1508.025, N
543142, 1508.7277777777779, N
543382, 1509.3944444444444, N
543606, 1510.0166666666667, N
543850, 1510.6944444444443, N
544107, 1511.4083333333333, N
544455, 1512.375, N
544681, 1513.0027777777777, N
544895, 1513.5972222222222, N
545019, 1513.9416666666666, V
545384, 1514.9555555555555, N
545647, 1515.6861111111111, N
545871, 1516.3083333333334, N
546121, 1517.0027777777777, N
546419, 1517.8305555555555, N
546740, 1518.7222222222222, N
546959, 1519.3305555555555, N
547222, 1520.0611111111111, N
547523, 1520.8972222222221, N
547770, 1521.5833333333333, N
547996, 1522.2111111111112, N
548262, 1522.95, N
548523, 1523.675, N
548765, 1524.3472222222222, N
549023, 1525.0638888888889, N
549232, 1525.6444444444444, N
549486, 1526.35, N
549627, 1526.7416666666666, V
549899, 1527.4972222222223, N
550153, 1528.2027777777778, N
550395, 1528.875, N
550635, 1529.5416666666667, N
550753, 1529.8694444444445, V
551008, 1530.5777777777778, N
551247, 1531.2416666666666, N
551520, 1532.0, N
551825, 1532.8472222222222, N
552077, 1533.5472222222222, N
552204, 1533.9, V
552542, 1534.838888888889, N
552852, 1535.7, N
553111, 1536.4194444444445, N
553374, 1537.15, N
553636, 1537.8777777777777, N
553839, 1538.4416666666666, N
554096, 1539.1555555555556, N
554403, 1540.0083333333334, N
554683, 1540.786111111111, N
554917, 1541.4361111111111, N
555147, 1542.075, N
555413, 1542.8138888888889, N
555726, 1543.6833333333334, N
555995, 1544.4305555555557, N
556262, 1545.1722222222222, N
556515, 1545.875, N
556784, 1546.6222222222223, N
557062, 1547.3944444444444, N
557288, 1548.0222222222221, N
557568, 1548.8, N
557813, 1549.4805555555556, N
558071, 1550.1972222222223, N
558292, 1550.8111111111111, N
558513, 1551.425, N
558750, 1552.0833333333333, N
559030, 1552.861111111111, N
559275, 1553.5416666666667, N
559542, 1554.2833333333333, N
559774, 1554.9277777777777, N
559996, 1555.5444444444445, N
560215, 1556.1527777777778, N
560478, 1556.8833333333334, N
560731, 1557.5861111111112, N
560991, 1558.3083333333334, N
561229, 1558.9694444444444, N
561433, 1559.536111111111, N
561740, 1560.388888888889, N
561987, 1561.075, N
562208, 1561.6888888888889, N
562484, 1562.4555555555555, N
562652, 1562.9222222222222, a
562959, 1563.775, N
563246, 1564.5722222222223, N
563490, 1565.25, N
563719, 1565.8861111111112, N
563955, 1566.5416666666667, N
564175, 1567.1527777777778, N
564461, 1567.9472222222223, N
564691, 1568.5861111111112, N
564902, 1569.1722222222222, N
565148, 1569.8555555555556, N
565350, 1570.4166666666667, N
565565, 1571.013888888889, N
565878, 1571.8833333333334, N
566020, 1572.2777777777778, a
566435, 1573.4305555555557, N
566722, 1574.2277777777779, N
566988, 1574.9666666666667, N
567222, 1575.6166666666666, N
567439, 1576.2194444444444, N
567638, 1576.7722222222221, N
567862, 1577.3944444444444, N
567997, 1577.7694444444444, V
568232, 1578.4222222222222, N
568526, 1579.2388888888888, N
568872, 1580.2, N
569130, 1580.9166666666667, N
569396, 1581.6555555555556, N
569643, 1582.3416666666667, N
569865, 1582.9583333333333, N
570128, 1583.6888888888889, N
570384, 1584.4, N
570617, 1585.0472222222222, N
570846, 1585.6833333333334, N
571151, 1586.5305555555556, N
571395, 1587.2083333333333, N
571616, 1587.8222222222223, N
571887, 1588.575, N
572035, 1588.986111111111, V
572292, 1589.7, N
572480, 1590.2222222222222, N
572712, 1590.8666666666666, N
572915, 1591.4305555555557, N
573173, 1592.1472222222221, N
573439, 1592.8861111111112, N
573701, 1593.6138888888888, N
574077, 1594.6583333333333, N
574332, 1595.3666666666666, N
574621, 1596.1694444444445, N
574889, 1596.9138888888888, N
575092, 1597.4777777777779, N
575336, 1598.1555555555556, N
575788, 1599.411111111111, N
576113, 1600.3138888888889, N
576320, 1600.888888888889, N
576527, 1601.463888888889, N
576769, 1602.1361111111112, N
577043, 1602.8972222222221, N
577244, 1603.4555555555555, N
577543, 1604.286111111111, N
577846, 1605.1277777777777, N
578102, 1605.838888888889, N
578330, 1606.4722222222222, N
578591, 1607.1972222222223, N
578848, 1607.911111111111, N
579070, 1608.5277777777778, N
579261, 1609.0583333333334, N
579521, 1609.7805555555556, N
579654, 1610.15, V
579999, 1611.1083333333333, N
580231, 1611.7527777777777, N
580477, 1612.4361111111111, N
580724, 1613.1222222222223, N
580926, 1613.6833333333334, N
581158, 1614.3277777777778, N
581447, 1615.1305555555555, N
581673, 1615.7583333333334, N
581921, 1616.4472222222223, N
582175, 1617.1527777777778, N
582456, 1617.9333333333334, N
582683, 1618.5638888888889, N
582881, 1619.1138888888888, N
583145, 1619.8472222222222, N
583280, 1620.2222222222222, V
583527, 1620.9083333333333, N
583758, 1621.55, N
584011, 1622.2527777777777, N
584275, 1622.986111111111, N
584523, 1623.675, N
584726, 1624.2388888888888, V
585024, 1625.0666666666666, N
585261, 1625.725, N
585506, 1626.4055555555556, N
585740, 1627.0555555555557, N
585981, 1627.725, N
586237, 1628.4361111111111, N
586490, 1629.138888888889, N
586733, 1629.8138888888889, N
586987, 1630.5194444444444, N
587245, 1631.236111111111, N
587468, 1631.8555555555556, N
587677, 1632.4361111111111, N
587908, 1633.0777777777778, N
588111, 1633.6416666666667, N
588402, 1634.45, N
588546, 1634.85, a
588872, 1635.7555555555555, N
589033, 1636.2027777777778, V
589294, 1636.9277777777777, N
589581, 1637.725, N
589836, 1638.4333333333334, N
589959, 1638.775, a
590154, 1639.3166666666666, a
590420, 1640.0555555555557, N
590666, 1640.7388888888888, N
590906, 1641.4055555555556, N
591138, 1642.05, N
591353, 1642.6472222222221, N
591606, 1643.35, N
591884, 1644.1222222222223, N
592089, 1644.6916666666666, N
592339, 1645.3861111111112, N
592507, 1645.8527777777779, a
592778, 1646.6055555555556, N
593003, 1647.2305555555556, N
593287, 1648.0194444444444, N
593554, 1648.7611111111112, N
593833, 1649.536111111111, N
594095, 1650.263888888889, N
594361, 1651.0027777777777, N
594623, 1651.7305555555556, N
594877, 1652.4361111111111, N
595103, 1653.0638888888889, N
595383, 1653.8416666666667, N
595628, 1654.5222222222221, N
595866, 1655.1833333333334, N
596284, 1656.3444444444444, N
596585, 1657.1805555555557, N
596828, 1657.8555555555556, N
596913, 1658.0916666666667, +
596998, 1658.3277777777778, V
597243, 1659.0083333333334, N
597409, 1659.4694444444444, V
597740, 1660.388888888889, N
597881, 1660.7805555555556, V
598041, 1661.225, +
598201, 1661.6694444444445, N
598422, 1662.2833333333333, N
598630, 1662.861111111111, N
598744, 1663.1777777777777, V
599018, 1663.9388888888889, N
599166, 1664.35, V
599440, 1665.111111111111, N
599675, 1665.763888888889, N
599860, 1666.2777777777778, V
600218, 1667.2722222222221, N
600473, 1667.9805555555556, N
600694, 1668.5944444444444, N
600911, 1669.1972222222223, N
601163, 1669.8972222222221, N
601428, 1670.6333333333334, N
601680, 1671.3333333333333, N
601898, 1671.9388888888889, N
602132, 1672.588888888889, N
602258, 1672.9388888888889, V
602523, 1673.675, N
602758, 1674.3277777777778, N
602983, 1674.9527777777778, N
603207, 1675.575, N
603335, 1675.9305555555557, V
603653, 1676.8138888888889, N
603944, 1677.6222222222223, N
604171, 1678.2527777777777, N
604434, 1678.9833333333333, N
604696, 1679.7111111111112, N
605011, 1680.5861111111112, N
605227, 1681.1861111111111, N
605447, 1681.7972222222222, N
605691, 1682.475, N
605940, 1683.1666666666667, N
606198, 1683.8833333333334, N
606442, 1684.5611111111111, N
606725, 1685.3472222222222, N
606984, 1686.0666666666666, N
607214, 1686.7055555555555, N
607427, 1687.2972222222222, N
607661, 1687.9472222222223, N
607913, 1688.6472222222221, N
608176, 1689.3777777777777, N
608410, 1690.0277777777778, N
608531, 1690.3638888888888, V
608876, 1691.3222222222223, N
609033, 1691.7583333333334, V
609367, 1692.6861111111111, N
609597, 1693.325, N
609933, 1694.2583333333334, N
610199, 1694.9972222222223, N
610449, 1695.6916666666666, N
610686, 1696.35, N
610892, 1696.9222222222222, N
611153, 1697.6472222222221, N
611370, 1698.25, N
611601, 1698.8916666666667, N
611845, 1699.5694444444443, N
612163, 1700.4527777777778, N
612441, 1701.225, N
612679, 1701.8861111111112, N
612906, 1702.5166666666667, N
613139, 1703.1638888888888, N
613351, 1703.7527777777777, N
613568, 1704.3555555555556, N
613817, 1705.0472222222222, N
614069, 1705.7472222222223, N
614276, 1706.3222222222223, N
614553, 1707.0916666666667, N
614823, 1707.8416666666667, N
615108, 1708.6333333333334, N
615288, 1709.1333333333334, V
615591, 1709.975, N
615809, 1710.5805555555555, N
616049, 1711.2472222222223, N
616305, 1711.9583333333333, N
616567, 1712.6861111111111, N
616825, 1713.4027777777778, N
617102, 1714.1722222222222, N
617318, 1714.7722222222221, N
617548, 1715.411111111111, N
617786, 1716.0722222222223, N
618081, 1716.8916666666667, N
618332, 1717.588888888889, N
618598, 1718.3277777777778, N
618865, 1719.0694444444443, N
619116, 1719.7666666666667, N
619383, 1720.5083333333334, N
619621, 1721.1694444444445, N
619822, 1721.7277777777779, N
620082, 1722.45, N
620346, 1723.1833333333334, N
620617, 1723.9361111111111, N
620912, 1724.7555555555555, N
621126, 1725.35, N
621351, 1725.975, N
621614, 1726.7055555555555, N
621847, 1727.3527777777779, N
622085, 1728.013888888889, N
622309, 1728.6361111111112, N
622521, 1729.225, N
622786, 1729.9611111111112, N
623065, 1730.736111111111, N
623347, 1731.5194444444444, N
623579, 1732.1638888888888, N
623786, 1732.7388888888888, N
623913, 1733.0916666666667, V
624164, 1733.7888888888888, N
624416, 1734.4888888888888, N
624635, 1735.0972222222222, N
625012, 1736.1444444444444, N
625298, 1736.9388888888889, N
625570, 1737.6944444444443, N
625776, 1738.2666666666667, N
626027, 1738.963888888889, N
626262, 1739.6166666666666, N
626572, 1740.4777777777779, N
626808, 1741.1333333333334, N
627033, 1741.7583333333334, N
627311, 1742.5305555555556, N
627554, 1743.2055555555555, N
627817, 1743.9361111111111, N
628076, 1744.6555555555556, N
628329, 1745.3583333333333, N
628457, 1745.713888888889, V
628792, 1746.6444444444444, N
629124, 1747.5666666666666, N
629401, 1748.3361111111112, N
629630, 1748.9722222222222, N
629875, 1749.6527777777778, N
630196, 1750.5444444444445, N
630490, 1751.361111111111, N
630724, 1752.0111111111112, N
630949, 1752.6361111111112, N
631175, 1753.263888888889, V
631460, 1754.0555555555557, N
631714, 1754.7611111111112, N
631942, 1755.3944444444444, N
632206, 1756.1277777777777, N
632362, 1756.5611111111111, V
632694, 1757.4833333333333, N
632856, 1757.9333333333334, V
633132, 1758.7, N
633270, 1759.0833333333333, a
633628, 1760.0777777777778, V
634129, 1761.4694444444444, E
634294, 1761.9277777777777, V
634622, 1762.838888888889, F
634885, 1763.5694444444443, N
635092, 1764.1444444444444, N
635374, 1764.9277777777777, N
635596, 1765.5444444444445, V
635820, 1766.1666666666667, N
636076, 1766.8777777777777, N
636291, 1767.475, N
636552, 1768.2, N
636823, 1768.9527777777778, N
637057, 1769.6027777777779, V
637348, 1770.411111111111, N
637580, 1771.0555555555557, V
637816, 1771.7111111111112, N
638061, 1772.3916666666667, N
638357, 1773.213888888889, N
638575, 1773.8194444444443, N
638831, 1774.5305555555556, N
639084, 1775.2333333333333, V
639370, 1776.0277777777778, N
639579, 1776.6083333333333, N
639835, 1777.3194444444443, N
640086, 1778.0166666666667, N
640301, 1778.6138888888888, N
640515, 1779.2083333333333, N
640788, 1779.9666666666667, N
641046, 1780.6833333333334, N
641282, 1781.338888888889, N
641523, 1782.0083333333334, N
641764, 1782.6777777777777, N
642011, 1783.3638888888888, V
642280, 1784.111111111111, N
642509, 1784.7472222222223, N
642757, 1785.4361111111111, N
643032, 1786.2, V
643319, 1786.9972222222223, N
643562, 1787.6722222222222, V
643795, 1788.3194444444443, N
644017, 1788.9361111111111, N
644262, 1789.6166666666666, N
644411, 1790.0305555555556, a
644572, 1790.4777777777779, V
644828, 1791.1888888888889, N
644997, 1791.6583333333333, V
645282, 1792.45, N
645556, 1793.2111111111112, N
645811, 1793.9194444444445, N
646025, 1794.513888888889, N
646260, 1795.1666666666667, N
646488, 1795.8, N
646774, 1796.5944444444444, N
646985, 1797.1805555555557, N
647236, 1797.8777777777777, N
647489, 1798.5805555555555, N
647672, 1799.088888888889, V
647966, 1799.9055555555556, N
648244, 1800.6777777777777, N
648469, 1801.3027777777777, V
648745, 1802.0694444444443, N
648943, 1802.6194444444445, N
649216, 1803.3777777777777, N
649513, 1804.2027777777778, V
649758, 1804.8833333333334, N
649962, 1805.45, N
