125, 0.3472222222222222, +
214, 0.5944444444444444, R
451, 1.2527777777777778, R
696, 1.9333333333333333, R
924, 2.566666666666667, R
1168, 3.2444444444444445, R
1440, 4.0, R
1707, 4.741666666666666, R
1953, 5.425, R
2191, 6.086111111111111, R
2397, 6.658333333333333, R
2604, 7.233333333333333, R
2826, 7.85, R
3049, 8.469444444444445, R
3280, 9.11111111111111, R
3548, 9.855555555555556, R
3789, 10.525, R
4030, 11.194444444444445, R
4278, 11.883333333333333, R
4516, 12.544444444444444, R
4754, 13.205555555555556, R
4976, 13.822222222222223, R
5199, 14.441666666666666, R
5438, 15.105555555555556, R
5680, 15.777777777777779, R
5917, 16.43611111111111, R
6161, 17.113888888888887, R
6398, 17.772222222222222, R
6630, 18.416666666666668, R
6854, 19.038888888888888, R
7091, 19.697222222222223, R
7333, 20.369444444444444, R
7570, 21.02777777777778, R
7813, 21.70277777777778, R
8068, 22.41111111111111, R
8331, 23.141666666666666, R
8571, 23.808333333333334, R
8806, 24.461111111111112, R
9049, 25.136111111111113, R
9280, 25.77777777777778, R
9506, 26.405555555555555, R
9741, 27.058333333333334, R
9992, 27.755555555555556, R
10232, 28.42222222222222, R
10478, 29.105555555555554, R
10716, 29.766666666666666, R
10943, 30.397222222222222, R
11171, 31.030555555555555, R
11402, 31.67222222222222, R
11637, 32.325, R
11868, 32.96666666666667, R
12097, 33.602777777777774, R
12335, 34.263888888888886, R
12574, 34.92777777777778, R
12809, 35.580555555555556, R
13044, 36.233333333333334, R
13276, 36.87777777777778, R
13499, 37.49722222222222, R
13731, 38.141666666666666, R
13972, 38.81111111111111, R
14220, 39.5, R
14467, 40.18611111111111, R
14727, 40.90833333333333, R
14981, 41.61388888888889, R
15224, 42.28888888888889, R
15458, 42.93888888888889, R
15699, 43.608333333333334, R
15940, 44.27777777777778, R
16177, 44.93611111111111, R
16416, 45.6, R
16669, 46.30277777777778, R
16925, 47.013888888888886, R
17166, 47.68333333333333, R
17415, 48.375, R
17661, 49.05833333333333, R
17899, 49.71944444444444, R
18118, 50.327777777777776, R
18346, 50.96111111111111, R
18591, 51.641666666666666, R
18837, 52.325, R
19080, 53.0, R
19302, 53.61666666666667, R
19516, 54.21111111111111, R
19730, 54.80555555555556, R
19936, 55.37777777777778, R
20150, 55.97222222222222, R
20386, 56.62777777777778, R
20629, 57.30277777777778, R
20880, 58.0, R
21121, 58.669444444444444, R
21363, 59.34166666666667, R
21603, 60.00833333333333, R
21830, 60.638888888888886, R
22048, 61.24444444444445, R
22264, 61.84444444444444, R
22499, 62.49722222222222, R
22761, 63.225, N
23024, 63.955555555555556, N
23276, 64.65555555555555, N
23521, 65.33611111111111, N
23770, 66.02777777777777, N
24012, 66.7, N
24255, 67.375, N
24488, 68.02222222222223, N
24718, 68.66111111111111, N
24967, 69.35277777777777, N
25231, 70.08611111111111, N
25482, 70.78333333333333, N
25726, 71.46111111111111, N
25977, 72.15833333333333, N
26223, 72.84166666666667, N
26453, 73.48055555555555, N
26691, 74.14166666666667, N
26940, 74.83333333333333, N
27188, 75.52222222222223, N
27435, 76.20833333333333, N
27691, 76.91944444444445, N
27939, 77.60833333333333, N
28178, 78.27222222222223, N
28415, 78.93055555555556, N
28650, 79.58333333333333, N
28885, 80.23611111111111, N
29119, 80.8861111111111, N
29351, 81.53055555555555, N
29590, 82.19444444444444, N
29831, 82.8638888888889, N
30080, 83.55555555555556, N
30315, 84.20833333333333, N
30543, 84.84166666666667, N
30773, 85.48055555555555, N
30996, 86.1, N
31224, 86.73333333333333, N
31465, 87.40277777777777, N
31721, 88.1138888888889, N
31971, 88.80833333333334, N
32203, 89.45277777777778, N
32427, 90.075, N
32646, 90.68333333333334, N
32869, 91.30277777777778, N
33089, 91.91388888888889, N
33313, 92.53611111111111, N
33545, 93.18055555555556, N
33785, 93.84722222222223, N
34019, 94.49722222222222, N
34261, 95.16944444444445, N
34500, 95.83333333333333, N
34730, 96.47222222222223, N
34958, 97.10555555555555, N
35189, 97.74722222222222, N
35426, 98.40555555555555, N
35658, 99.05, N
35900, 99.72222222222223, N
36153, 100.425, N
36404, 101.12222222222222, N
36626, 101.7388888888889, N
36850, 102.36111111111111, N
37069, 102.96944444444445, N
37297, 103.60277777777777, N
37533, 104.25833333333334, N
37764, 104.9, N
38011, 105.58611111111111, N
38238, 106.21666666666667, N
38458, 106.82777777777778, N
38682, 107.45, R
38907, 108.075, R
39128, 108.68888888888888, R
39349, 109.30277777777778, R
39566, 109.90555555555555, R
39807, 110.575, R
40073, 111.31388888888888, N
40345, 112.06944444444444, N
40620, 112.83333333333333, N
40883, 113.56388888888888, N
41116, 114.21111111111111, N
41340, 114.83333333333333, N
41555, 115.43055555555556, N
41772, 116.03333333333333, N
42006, 116.68333333333334, N
42269, 117.41388888888889, N
42528, 118.13333333333334, N
42793, 118.86944444444444, N
43025, 119.51388888888889, N
43251, 120.14166666666667, N
43481, 120.78055555555555, N
43708, 121.41111111111111, N
43937, 122.04722222222222, N
44196, 122.76666666666667, N
44426, 123.40555555555555, N
44678, 124.10555555555555, N
44929, 124.80277777777778, N
45168, 125.46666666666667, N
45404, 126.12222222222222, N
45627, 126.74166666666666, N
45844, 127.34444444444445, N
46063, 127.95277777777778, N
46298, 128.60555555555555, N
46537, 129.26944444444445, N
46776, 129.93333333333334, N
47014, 130.59444444444443, N
47246, 131.23888888888888, N
47454, 131.81666666666666, N
47676, 132.43333333333334, N
47913, 133.09166666666667, N
48161, 133.78055555555557, N
48401, 134.44722222222222, N
48646, 135.12777777777777, N
48892, 135.8111111111111, N
49130, 136.47222222222223, N
49365, 137.125, N
49595, 137.76388888888889, N
49810, 138.36111111111111, N
50023, 138.95277777777778, N
50237, 139.54722222222222, N
50468, 140.1888888888889, N
50718, 140.88333333333333, N
50962, 141.5611111111111, N
51205, 142.23611111111111, N
51450, 142.91666666666666, N
51694, 143.59444444444443, N
51922, 144.2277777777778, N
52154, 144.87222222222223, N
52392, 145.53333333333333, N
52610, 146.13888888888889, N
52832, 146.75555555555556, N
53060, 147.38888888888889, N
53298, 148.05, N
53533, 148.70277777777778, N
53757, 149.325, N
53984, 149.95555555555555, N
54201, 150.55833333333334, N
54412, 151.14444444444445, N
54623, 151.73055555555555, R
54844, 152.34444444444443, R
55074, 152.98333333333332, R
55303, 153.61944444444444, R
55523, 154.23055555555555, R
55743, 154.84166666666667, R
55962, 155.45, R
56175, 156.04166666666666, R
56383, 156.61944444444444, R
56585, 157.18055555555554, R
56791, 157.75277777777777, R
56987, 158.29722222222222, R
57188, 158.85555555555555, R
57397, 159.4361111111111, R
57610, 160.02777777777777, R
57834, 160.65, R
58060, 161.27777777777777, R
58279, 161.88611111111112, R
58490, 162.47222222222223, R
58696, 163.04444444444445, R
58911, 163.64166666666668, R
59134, 164.26111111111112, R
59364, 164.9, R
59590, 165.52777777777777, R
59809, 166.13611111111112, R
60035, 166.76388888888889, R
60264, 167.4, R
60481, 168.00277777777777, R
60697, 168.6027777777778, R
60909, 169.19166666666666, R
61122, 169.78333333333333, R
61342, 170.39444444444445, R
61565, 171.01388888888889, R
61796, 171.65555555555557, R
62030, 172.30555555555554, R
62265, 172.95833333333334, R
62491, 173.5861111111111, R
62711, 174.19722222222222, R
62930, 174.80555555555554, R
63150, 175.41666666666666, R
63369, 176.025, R
63598, 176.6611111111111, R
63828, 177.3, R
64058, 177.9388888888889, R
64297, 178.6027777777778, R
64527, 179.24166666666667, R
64752, 179.86666666666667, R
64975, 180.48611111111111, R
65191, 181.0861111111111, R
65408, 181.6888888888889, R
65616, 182.26666666666668, R
65838, 182.88333333333333, R
66078, 183.55, R
66318, 184.21666666666667, R
66554, 184.87222222222223, R
66787, 185.51944444444445, R
67013, 186.1472222222222, R
67231, 186.75277777777777, R
67446, 187.35, R
67681, 188.00277777777777, R
67929, 188.69166666666666, R
68175, 189.375, R
68416, 190.04444444444445, R
68662, 190.7277777777778, R
68910, 191.41666666666666, R
69147, 192.075, R
69386, 192.73888888888888, R
69634, 193.42777777777778, R
69869, 194.08055555555555, R
70105, 194.73611111111111, R
70353, 195.425, R
70606, 196.12777777777777, R
70853, 196.8138888888889, R
71100, 197.5, R
71342, 198.17222222222222, R
71581, 198.8361111111111, R
71811, 199.475, R
72046, 200.12777777777777, R
72282, 200.78333333333333, R
72520, 201.44444444444446, R
72762, 202.11666666666667, R
73011, 202.80833333333334, R
73254, 203.48333333333332, R
73492, 204.14444444444445, R
73722, 204.78333333333333, R
73944, 205.4, R
74164, 206.01111111111112, R
74384, 206.62222222222223, R
74613, 207.25833333333333, R
74853, 207.925, R
75095, 208.59722222222223, R
75342, 209.28333333333333, R
75586, 209.9611111111111, R
75817, 210.6027777777778, R
76046, 211.23888888888888, R
76270, 211.86111111111111, R
76503, 212.50833333333333, R
76746, 213.18333333333334, R
76982, 213.8388888888889, R
77219, 214.49722222222223, R
77463, 215.175, R
77696, 215.82222222222222, R
77919, 216.44166666666666, R
78145, 217.06944444444446, R
78372, 217.7, R
78596, 218.32222222222222, R
78821, 218.94722222222222, R
79054, 219.59444444444443, R
79302, 220.28333333333333, R
79544, 220.95555555555555, R
79779, 221.60833333333332, R
80013, 222.25833333333333, R
80236, 222.87777777777777, R
80461, 223.50277777777777, R
80689, 224.13611111111112, R
80916, 224.76666666666668, R
81151, 225.41944444444445, R
81387, 226.075, R
81615, 226.70833333333334, R
81848, 227.35555555555555, R
82076, 227.98888888888888, R
82298, 228.60555555555555, R
82524, 229.23333333333332, R
82749, 229.85833333333332, R
82983, 230.50833333333333, R
83208, 231.13333333333333, R
83452, 231.8111111111111, R
83707, 232.51944444444445, R
83968, 233.24444444444444, R
84210, 233.91666666666666, R
84436, 234.54444444444445, R
84669, 235.19166666666666, R
84883, 235.7861111111111, R
85101, 236.39166666666668, R
85327, 237.01944444444445, R
85560, 237.66666666666666, R
85798, 238.32777777777778, R
86030, 238.97222222222223, R
86261, 239.61388888888888, R
86492, 240.25555555555556, R
86718, 240.88333333333333, R
86947, 241.51944444444445, R
87175, 242.15277777777777, R
87413, 242.8138888888889, R
87665, 243.51388888888889, R
87910, 244.19444444444446, R
88157, 244.88055555555556, R
88405, 245.56944444444446, R
88643, 246.23055555555555, R
88865, 246.84722222222223, R
89086, 247.4611111111111, R
89307, 248.075, R
89537, 248.7138888888889, R
89773, 249.36944444444444, R
90016, 250.04444444444445, R
90256, 250.7111111111111, R
90507, 251.40833333333333, R
90743, 252.0638888888889, R
90973, 252.70277777777778, R
91206, 253.35, R
91435, 253.98611111111111, R
91670, 254.63888888888889, R
91905, 255.29166666666666, R
92147, 255.9638888888889, R
92393, 256.64722222222224, R
92641, 257.3361111111111, R
92871, 257.975, R
93098, 258.60555555555555, R
93330, 259.25, R
93559, 259.8861111111111, R
93782, 260.50555555555553, R
94014, 261.15, R
94253, 261.81388888888887, R
94495, 262.4861111111111, R
94724, 263.1222222222222, R
94955, 263.7638888888889, R
95184, 264.4, R
95403, 265.0083333333333, R
95622, 265.6166666666667, R
95851, 266.2527777777778, R
96083, 266.89722222222224, R
96318, 267.55, R
96553, 268.2027777777778, R
96793, 268.86944444444447, R
97032, 269.53333333333336, R
97264, 270.1777777777778, R
97481, 270.78055555555557, R
97696, 271.3777777777778, R
97909, 271.96944444444443, R
98124, 272.56666666666666, R
98349, 273.19166666666666, R
98581, 273.8361111111111, R
98812, 274.47777777777776, R
99056, 275.15555555555557, R
99290, 275.80555555555554, R
99517, 276.43611111111113, R
99740, 277.05555555555554, R
99963, 277.675, R
100191, 278.30833333333334, R
100410, 278.9166666666667, R
100635, 279.5416666666667, R
100877, 280.2138888888889, R
101117, 280.88055555555553, R
101347, 281.51944444444445, R
101568, 282.1333333333333, R
101785, 282.7361111111111, R
102000, 283.3333333333333, R
102217, 283.93611111111113, R
102435, 284.5416666666667, R
102658, 285.1611111111111, R
102878, 285.77222222222224, R
103101, 286.39166666666665, R
103329, 287.025, R
103555, 287.65277777777777, R
103771, 288.2527777777778, R
103982, 288.8388888888889, R
104190, 289.4166666666667, R
104415, 290.0416666666667, R
104640, 290.6666666666667, R
104871, 291.30833333333334, R
105103, 291.9527777777778, R
105335, 292.59722222222223, R
105561, 293.225, R
105775, 293.81944444444446, R
105992, 294.4222222222222, R
106210, 295.02777777777777, R
106428, 295.6333333333333, R
106649, 296.2472222222222, R
106882, 296.89444444444445, R
107110, 297.52777777777777, R
107340, 298.1666666666667, R
107569, 298.8027777777778, R
107803, 299.4527777777778, R
108018, 300.05, R
108235, 300.65277777777777, R
108457, 301.26944444444445, R
108673, 301.86944444444447, R
108891, 302.475, R
109115, 303.09722222222223, R
109347, 303.7416666666667, R
109580, 304.3888888888889, R
109812, 305.03333333333336, R
110046, 305.68333333333334, R
110284, 306.34444444444443, R
110512, 306.97777777777776, R
110740, 307.6111111111111, R
110968, 308.24444444444447, R
111204, 308.9, R
111440, 309.55555555555554, R
111683, 310.23055555555555, R
111933, 310.925, R
112196, 311.65555555555557, N
112447, 312.35277777777776, N
112687, 313.01944444444445, N
112922, 313.6722222222222, N
113146, 314.2944444444444, N
113368, 314.9111111111111, N
113599, 315.5527777777778, N
113836, 316.2111111111111, N
114072, 316.8666666666667, N
114312, 317.53333333333336, N
114550, 318.19444444444446, N
114786, 318.85, N
115013, 319.48055555555555, N
115243, 320.11944444444447, N
115481, 320.78055555555557, N
115725, 321.4583333333333, N
115969, 322.1361111111111, N
116213, 322.81388888888887, N
116458, 323.49444444444447, N
116687, 324.13055555555553, N
116910, 324.75, N
117139, 325.3861111111111, N
117372, 326.03333333333336, N
117613, 326.7027777777778, N
117855, 327.375, N
118100, 328.05555555555554, N
118342, 328.72777777777776, N
118579, 329.3861111111111, N
118808, 330.02222222222224, N
119030, 330.6388888888889, N
119246, 331.2388888888889, N
119459, 331.8305555555556, N
119676, 332.43333333333334, N
119914, 333.09444444444443, N
120161, 333.78055555555557, N
120409, 334.46944444444443, N
120648, 335.1333333333333, N
120878, 335.77222222222224, N
121109, 336.4138888888889, N
121332, 337.03333333333336, N
121553, 337.64722222222224, N
121770, 338.25, N
121994, 338.8722222222222, N
122225, 339.5138888888889, N
122455, 340.15277777777777, N
122684, 340.7888888888889, N
122924, 341.4555555555556, N
123157, 342.10277777777776, N
123375, 342.7083333333333, N
123583, 343.2861111111111, N
123814, 343.9277777777778, N
124049, 344.5805555555556, N
124274, 345.2055555555556, N
124512, 345.8666666666667, N
124754, 346.5388888888889, N
124981, 347.1694444444444, N
125208, 347.8, N
125416, 348.3777777777778, N
125624, 348.9555555555556, R
125834, 349.5388888888889, R
126040, 350.1111111111111, R
126259, 350.71944444444443, R
126493, 351.36944444444447, R
126733, 352.0361111111111, R
126975, 352.7083333333333, R
127205, 353.34722222222223, R
127429, 353.96944444444443, R
127645, 354.56944444444446, R
127858, 355.1611111111111, R
128074, 355.7611111111111, R
128288, 356.35555555555555, R
128517, 356.9916666666667, R
128760, 357.6666666666667, R
128998, 358.3277777777778, R
129236, 358.9888888888889, R
129465, 359.625, R
129683, 360.23055555555555, R
129902, 360.8388888888889, R
130115, 361.43055555555554, R
130335, 362.0416666666667, R
130561, 362.6694444444444, R
130792, 363.31111111111113, R
131032, 363.97777777777776, R
131273, 364.64722222222224, R
131521, 365.3361111111111, R
131768, 366.02222222222224, R
132007, 366.68611111111113, R
132231, 367.30833333333334, R
132452, 367.9222222222222, R
132678, 368.55, R
132905, 369.18055555555554, R
133142, 369.8388888888889, R
133382, 370.50555555555553, R
133616, 371.15555555555557, R
133850, 371.80555555555554, R
134076, 372.43333333333334, R
134301, 373.05833333333334, R
134532, 373.7, R
134771, 374.3638888888889, R
135027, 375.075, N
135273, 375.7583333333333, N
135510, 376.4166666666667, N
135740, 377.05555555555554, N
135969, 377.69166666666666, R
136190, 378.30555555555554, R
136410, 378.9166666666667, R
136625, 379.5138888888889, R
136836, 380.1, R
137056, 380.7111111111111, R
137301, 381.39166666666665, R
137551, 382.0861111111111, R
137795, 382.7638888888889, R
138035, 383.43055555555554, R
138274, 384.09444444444443, R
138504, 384.73333333333335, R
138723, 385.34166666666664, R
138947, 385.9638888888889, R
139183, 386.61944444444447, R
139413, 387.2583333333333, R
139646, 387.90555555555557, R
139886, 388.5722222222222, R
140138, 389.27222222222224, R
140373, 389.925, R
140599, 390.5527777777778, R
140820, 391.1666666666667, R
141051, 391.80833333333334, R
141282, 392.45, R
141512, 393.0888888888889, R
141762, 393.78333333333336, R
142014, 394.48333333333335, R
142255, 395.15277777777777, R
142499, 395.8305555555556, R
142743, 396.5083333333333, R
142983, 397.175, R
143215, 397.81944444444446, R
143444, 398.4555555555556, R
143672, 399.0888888888889, R
143910, 399.75, R
144155, 400.43055555555554, R
144387, 401.075, R
144613, 401.7027777777778, R
144842, 402.3388888888889, R
145070, 402.97222222222223, R
145296, 403.6, R
145521, 404.225, R
145761, 404.89166666666665, R
146018, 405.60555555555555, R
146265, 406.2916666666667, R
146506, 406.9611111111111, R
146747, 407.63055555555553, R
146979, 408.275, R
147195, 408.875, R
147416, 409.4888888888889, R
147646, 410.1277777777778, R
147885, 410.7916666666667, R
148122, 411.45, R
148361, 412.1138888888889, R
148606, 412.7944444444444, R
148843, 413.4527777777778, R
149066, 414.0722222222222, R
149286, 414.68333333333334, R
149491, 415.2527777777778, R
149697, 415.825, R
149909, 416.4138888888889, R
150126, 417.01666666666665, R
150357, 417.65833333333336, R
150587, 418.2972222222222, R
150809, 418.9138888888889, R
151035, 419.5416666666667, R
151254, 420.15, R
151466, 420.7388888888889, R
151680, 421.3333333333333, R
151895, 421.93055555555554, R
152109, 422.525, R
152318, 423.10555555555555, R
152535, 423.7083333333333, R
152761, 424.3361111111111, R
152987, 424.9638888888889, R
153210, 425.5833333333333, R
153422, 426.1722222222222, R
153633, 426.7583333333333, R
153841, 427.3361111111111, R
154048, 427.9111111111111, R
154254, 428.48333333333335, R
154472, 429.0888888888889, R
154713, 429.7583333333333, R
154956, 430.43333333333334, R
155199, 431.10833333333335, R
155431, 431.7527777777778, R
155646, 432.35, R
155856, 432.93333333333334, R
156061, 433.5027777777778, R
156266, 434.0722222222222, R
156476, 434.65555555555557, R
156684, 435.23333333333335, R
156903, 435.84166666666664, R
157123, 436.4527777777778, R
157352, 437.0888888888889, R
157582, 437.72777777777776, R
157803, 438.34166666666664, R
158023, 438.9527777777778, R
158234, 439.5388888888889, R
158452, 440.14444444444445, R
158677, 440.76944444444445, R
158904, 441.4, R
159137, 442.0472222222222, R
159369, 442.69166666666666, R
159602, 443.3388888888889, R
159828, 443.96666666666664, R
160040, 444.55555555555554, R
160252, 445.14444444444445, R
160467, 445.7416666666667, R
160682, 446.3388888888889, R
160908, 446.96666666666664, R
161128, 447.5777777777778, R
161357, 448.2138888888889, R
161591, 448.8638888888889, R
161816, 449.4888888888889, R
162039, 450.10833333333335, R
162257, 450.7138888888889, R
162471, 451.30833333333334, R
162691, 451.9194444444444, R
162905, 452.5138888888889, R
163127, 453.13055555555553, R
163358, 453.77222222222224, R
163591, 454.4194444444444, R
163820, 455.05555555555554, R
164035, 455.65277777777777, R
164255, 456.2638888888889, R
164473, 456.86944444444447, R
164687, 457.4638888888889, R
164907, 458.075, R
165132, 458.7, R
165365, 459.34722222222223, R
165605, 460.0138888888889, R
165831, 460.64166666666665, R
166061, 461.28055555555557, R
166293, 461.925, R
166512, 462.53333333333336, R
166726, 463.1277777777778, R
166942, 463.72777777777776, R
167167, 464.35277777777776, R
167398, 464.99444444444447, R
167624, 465.6222222222222, R
167867, 466.2972222222222, R
168111, 466.975, R
168342, 467.6166666666667, R
168570, 468.25, R
168794, 468.8722222222222, R
169015, 469.4861111111111, R
169238, 470.10555555555555, R
169468, 470.74444444444447, R
169715, 471.43055555555554, R
169958, 472.10555555555555, R
170198, 472.77222222222224, R
170436, 473.43333333333334, R
170670, 474.0833333333333, R
170889, 474.69166666666666, R
171103, 475.2861111111111, R
171314, 475.8722222222222, R
171527, 476.4638888888889, R
171745, 477.06944444444446, R
171981, 477.725, R
172244, 478.4555555555556, R
172508, 479.18888888888887, R
172738, 479.8277777777778, R
172955, 480.43055555555554, R
173168, 481.02222222222224, R
173377, 481.60277777777776, R
173590, 482.19444444444446, R
173817, 482.825, R
174052, 483.47777777777776, R
174299, 484.1638888888889, R
174538, 484.8277777777778, R
174782, 485.50555555555553, R
175032, 486.2, R
175262, 486.8388888888889, R
175483, 487.4527777777778, R
175703, 488.06388888888887, R
175934, 488.7055555555556, R
176166, 489.35, R
176407, 490.01944444444445, R
176649, 490.69166666666666, R
176889, 491.35833333333335, R
177135, 492.0416666666667, R
177368, 492.68888888888887, R
177601, 493.3361111111111, R
177832, 493.97777777777776, R
178064, 494.6222222222222, R
178301, 495.28055555555557, R
178536, 495.93333333333334, R
178770, 496.5833333333333, R
179005, 497.2361111111111, R
179236, 497.8777777777778, R
179457, 498.4916666666667, R
179681, 499.1138888888889, R
179916, 499.76666666666665, R
180151, 500.4194444444444, R
180392, 501.0888888888889, R
180645, 501.7916666666667, R
180884, 502.4555555555556, R
181120, 503.1111111111111, R
181345, 503.7361111111111, R
181567, 504.35277777777776, R
181785, 504.9583333333333, R
181996, 505.5444444444444, R
182211, 506.14166666666665, R
182438, 506.77222222222224, R
182669, 507.4138888888889, R
182903, 508.06388888888887, R
183145, 508.7361111111111, R
183395, 509.43055555555554, R
183633, 510.09166666666664, R
183865, 510.7361111111111, R
184076, 511.3222222222222, R
184285, 511.90277777777777, R
184496, 512.4888888888889, R
184706, 513.0722222222222, R
184922, 513.6722222222222, R
185140, 514.2777777777778, R
185368, 514.9111111111112, R
185592, 515.5333333333333, R
185817, 516.1583333333333, R
186060, 516.8333333333334, R
186317, 517.5472222222222, N
186559, 518.2194444444444, N
186809, 518.9138888888889, N
187054, 519.5944444444444, N
187293, 520.2583333333333, N
187535, 520.9305555555555, N
187786, 521.6277777777777, N
188020, 522.2777777777778, N
188256, 522.9333333333333, N
188477, 523.5472222222222, N
188712, 524.2, N
188975, 524.9305555555555, N
189246, 525.6833333333333, N
189507, 526.4083333333333, N
189768, 527.1333333333333, N
190018, 527.8277777777778, N
190277, 528.5472222222222, N
190523, 529.2305555555556, N
190756, 529.8777777777777, N
190988, 530.5222222222222, N
191220, 531.1666666666666, N
191461, 531.8361111111111, N
191700, 532.5, N
191946, 533.1833333333333, N
192199, 533.8861111111111, N
192450, 534.5833333333334, N
192695, 535.2638888888889, N
192927, 535.9083333333333, N
193161, 536.5583333333333, N
193400, 537.2222222222222, N
193652, 537.9222222222222, N
193891, 538.5861111111111, N
194125, 539.2361111111111, N
194359, 539.8861111111111, N
194598, 540.55, N
194846, 541.2388888888889, N
195095, 541.9305555555555, N
195334, 542.5944444444444, N
195565, 543.2361111111111, N
195796, 543.8777777777777, N
196031, 544.5305555555556, N
196263, 545.175, N
196487, 545.7972222222222, N
196714, 546.4277777777778, N
196947, 547.075, N
197169, 547.6916666666667, N
197394, 548.3166666666667, N
197633, 548.9805555555556, N
197889, 549.6916666666667, N
198141, 550.3916666666667, N
198388, 551.0777777777778, N
198621, 551.725, N
198844, 552.3444444444444, N
199056, 552.9333333333333, N
199265, 553.5138888888889, N
199482, 554.1166666666667, N
199705, 554.7361111111111, N
199931, 555.3638888888889, N
200155, 555.9861111111111, R
200393, 556.6472222222222, R
200641, 557.3361111111111, R
200888, 558.0222222222222, R
201119, 558.6638888888889, R
201349, 559.3027777777778, R
201557, 559.8805555555556, R
201765, 560.4583333333334, R
201978, 561.05, R
202193, 561.6472222222222, R
202418, 562.2722222222222, R
202646, 562.9055555555556, R
202869, 563.525, R
203089, 564.1361111111111, R
203310, 564.75, R
203539, 565.3861111111111, R
203774, 566.0388888888889, R
204009, 566.6916666666667, R
204248, 567.3555555555556, R
204488, 568.0222222222222, R
204731, 568.6972222222222, R
204967, 569.3527777777778, R
205194, 569.9833333333333, R
205420, 570.6111111111111, R
205640, 571.2222222222222, R
205856, 571.8222222222222, R
206082, 572.45, R
206313, 573.0916666666667, R
206561, 573.7805555555556, R
206808, 574.4666666666667, R
207041, 575.1138888888889, R
207267, 575.7416666666667, R
207479, 576.3305555555555, R
207685, 576.9027777777778, R
207896, 577.4888888888889, R
208102, 578.0611111111111, R
208318, 578.6611111111112, R
208544, 579.2888888888889, R
208772, 579.9222222222222, R
209013, 580.5916666666667, R
209252, 581.2555555555556, R
209501, 581.9472222222222, R
209733, 582.5916666666667, R
209954, 583.2055555555555, R
210168, 583.8, R
210389, 584.4138888888889, R
210615, 585.0416666666666, R
210844, 585.6777777777778, R
211081, 586.3361111111111, R
211316, 586.9888888888889, R
211544, 587.6222222222223, R
211762, 588.2277777777778, R
211971, 588.8083333333333, R
212188, 589.4111111111112, R
212409, 590.025, R
212627, 590.6305555555556, R
212852, 591.2555555555556, R
213085, 591.9027777777778, R
213325, 592.5694444444445, R
213559, 593.2194444444444, R
213785, 593.8472222222222, R
214010, 594.4722222222222, R
214226, 595.0722222222222, R
214447, 595.6861111111111, R
214684, 596.3444444444444, R
214922, 597.0055555555556, R
215155, 597.6527777777778, R
215388, 598.3, R
215610, 598.9166666666666, R
215836, 599.5444444444445, R
216051, 600.1416666666667, R
216266, 600.7388888888889, R
216491, 601.3638888888889, R
216724, 602.0111111111111, R
216958, 602.6611111111112, R
217197, 603.325, R
217434, 603.9833333333333, R
217666, 604.6277777777777, R
217898, 605.2722222222222, R
218133, 605.925, R
218355, 606.5416666666666, R
218575, 607.1527777777778, R
218792, 607.7555555555556, R
219021, 608.3916666666667, R
219250, 609.0277777777778, R
219487, 609.6861111111111, R
219734, 610.3722222222223, R
219982, 611.0611111111111, R
220216, 611.7111111111111, R
220445, 612.3472222222222, R
220667, 612.9638888888888, R
220890, 613.5833333333334, R
221109, 614.1916666666667, R
221336, 614.8222222222222, R
221579, 615.4972222222223, R
221820, 616.1666666666666, R
222063, 616.8416666666667, R
222299, 617.4972222222223, R
222537, 618.1583333333333, R
222773, 618.8138888888889, R
223000, 619.4444444444445, R
223223, 620.0638888888889, R
223450, 620.6944444444445, R
223700, 621.3888888888889, R
223954, 622.0944444444444, R
224195, 622.7638888888889, R
224431, 623.4194444444445, R
224655, 624.0416666666666, R
224872, 624.6444444444444, R
225093, 625.2583333333333, R
225323, 625.8972222222222, R
225554, 626.5388888888889, R
225787, 627.1861111111111, R
226017, 627.825, R
226248, 628.4666666666667, R
226483, 629.1194444444444, R
226716, 629.7666666666667, R
226939, 630.3861111111111, R
227158, 630.9944444444444, R
227376, 631.6, R
227607, 632.2416666666667, R
227838, 632.8833333333333, R
228067, 633.5194444444444, R
228300, 634.1666666666666, R
228535, 634.8194444444445, R
228757, 635.4361111111111, R
228975, 636.0416666666666, R
229182, 636.6166666666667, R
229388, 637.1888888888889, R
229602, 637.7833333333333, R
229830, 638.4166666666666, R
230071, 639.0861111111111, R
230303, 639.7305555555556, R
230536, 640.3777777777777, R
230785, 641.0694444444445, R
231030, 641.75, R
231265, 642.4027777777778, R
231490, 643.0277777777778, R
231701, 643.6138888888889, R
231911, 644.1972222222222, R
232122, 644.7833333333333, R
232341, 645.3916666666667, R
232561, 646.0027777777777, R
232770, 646.5833333333334, R
232978, 647.1611111111112, R
233175, 647.7083333333334, R
233373, 648.2583333333333, R
233576, 648.8222222222222, R
233784, 649.4, R
234003, 650.0083333333333, R
234219, 650.6083333333333, R
234451, 651.2527777777777, R
234687, 651.9083333333333, R
234920, 652.5555555555555, R
235152, 653.2, R
235384, 653.8444444444444, R
235610, 654.4722222222222, R
235825, 655.0694444444445, R
236048, 655.6888888888889, R
236285, 656.3472222222222, R
236524, 657.0111111111111, R
236758, 657.6611111111112, R
236999, 658.3305555555555, R
237241, 659.0027777777777, R
237475, 659.6527777777778, R
237702, 660.2833333333333, R
237923, 660.8972222222222, R
238145, 661.5138888888889, R
238375, 662.1527777777778, R
238607, 662.7972222222222, R
238844, 663.4555555555555, R
239087, 664.1305555555556, R
239331, 664.8083333333333, R
239577, 665.4916666666667, R
239801, 666.1138888888889, R
240022, 666.7277777777778, R
240248, 667.3555555555556, R
240463, 667.9527777777778, R
240682, 668.5611111111111, R
240903, 669.175, R
241134, 669.8166666666667, R
241371, 670.475, R
241601, 671.1138888888889, R
241832, 671.7555555555556, R
242053, 672.3694444444444, R
242271, 672.975, R
242494, 673.5944444444444, R
242715, 674.2083333333334, R
242943, 674.8416666666667, R
243196, 675.5444444444445, R
243449, 676.2472222222223, R
243695, 676.9305555555555, R
243929, 677.5805555555555, R
244153, 678.2027777777778, R
244368, 678.8, R
244573, 679.3694444444444, R
244775, 679.9305555555555, R
244981, 680.5027777777777, R
245198, 681.1055555555556, R
245428, 681.7444444444444, R
245667, 682.4083333333333, R
245910, 683.0833333333334, R
246147, 683.7416666666667, R
246379, 684.3861111111111, R
246612, 685.0333333333333, R
246848, 685.6888888888889, R
247088, 686.3555555555556, R
247328, 687.0222222222222, R
247566, 687.6833333333333, R
247796, 688.3222222222222, R
248029, 688.9694444444444, R
248257, 689.6027777777778, R
248476, 690.2111111111111, R
248700, 690.8333333333334, R
248925, 691.4583333333334, R
249140, 692.0555555555555, R
249372, 692.7, R
249616, 693.3777777777777, R
249862, 694.0611111111111, R
250102, 694.7277777777778, R
250328, 695.3555555555556, R
250546, 695.9611111111111, R
250752, 696.5333333333333, R
250950, 697.0833333333334, R
251152, 697.6444444444444, R
251358, 698.2166666666667, R
251579, 698.8305555555555, R
251841, 699.5583333333333, R
252112, 700.3111111111111, N
252274, 700.7611111111111, ~
252371, 701.0305555555556, N
252607, 701.6861111111111, N
252720, 702.0, ~
252841, 702.3361111111111, N
253069, 702.9694444444444, N
253293, 703.5916666666667, N
253504, 704.1777777777778, N
253727, 704.7972222222222, N
253965, 705.4583333333334, N
254212, 706.1444444444444, N
254454, 706.8166666666667, N
254706, 707.5166666666667, N
254956, 708.2111111111111, N
255216, 708.9333333333333, N
255465, 709.625, N
255716, 710.3222222222222, N
255965, 711.0138888888889, N
256209, 711.6916666666667, N
256444, 712.3444444444444, N
256685, 713.0138888888889, N
256926, 713.6833333333333, N
257157, 714.325, N
257380, 714.9444444444445, N
257617, 715.6027777777778, N
257857, 716.2694444444444, N
258095, 716.9305555555555, N
258336, 717.6, N
258585, 718.2916666666666, N
258833, 718.9805555555556, N
259069, 719.6361111111111, N
259295, 720.2638888888889, N
259515, 720.875, N
259731, 721.475, N
259948, 722.0777777777778, N
260173, 722.7027777777778, N
260412, 723.3666666666667, N
260643, 724.0083333333333, N
260873, 724.6472222222222, N
261105, 725.2916666666666, N
261345, 725.9583333333334, N
261597, 726.6583333333333, N
261828, 727.3, N
262052, 727.9222222222222, N
262281, 728.5583333333333, N
262524, 729.2333333333333, N
262786, 729.9611111111111, N
263056, 730.7111111111111, N
263310, 731.4166666666666, N
263539, 732.0527777777778, N
263764, 732.6777777777778, N
263988, 733.3, N
264211, 733.9194444444445, N
264433, 734.5361111111112, N
264651, 735.1416666666667, N
264874, 735.7611111111111, R
265101, 736.3916666666667, R
265326, 737.0166666666667, R
265546, 737.6277777777777, R
265765, 738.2361111111111, R
265977, 738.825, R
266186, 739.4055555555556, R
266398, 739.9944444444444, R
266620, 740.6111111111111, R
266860, 741.2777777777778, R
267109, 741.9694444444444, R
267348, 742.6333333333333, R
267585, 743.2916666666666, R
267804, 743.9, R
268016, 744.4888888888889, R
268225, 745.0694444444445, R
268433, 745.6472222222222, R
268652, 746.2555555555556, R
268870, 746.8611111111111, R
269088, 747.4666666666667, R
269309, 748.0805555555555, R
269531, 748.6972222222222, R
269754, 749.3166666666667, R
269981, 749.9472222222222, R
270197, 750.5472222222222, R
270404, 751.1222222222223, R
270614, 751.7055555555555, R
270829, 752.3027777777778, R
271048, 752.9111111111112, R
271274, 753.5388888888889, R
271522, 754.2277777777778, R
271757, 754.8805555555556, R
271994, 755.5388888888889, R
272221, 756.1694444444445, R
272430, 756.75, R
272635, 757.3194444444445, R
272841, 757.8916666666667, R
273051, 758.475, R
273260, 759.0555555555555, R
273474, 759.65, R
273680, 760.2222222222222, R
273889, 760.8027777777778, R
274105, 761.4027777777778, R
274315, 761.9861111111111, R
274552, 762.6444444444444, R
274805, 763.3472222222222, R
275059, 764.0527777777778, N
275294, 764.7055555555555, N
275530, 765.3611111111111, N
275772, 766.0333333333333, N
276013, 766.7027777777778, N
276246, 767.35, N
276463, 767.9527777777778, N
276682, 768.5611111111111, N
276900, 769.1666666666666, N
277119, 769.775, N
277342, 770.3944444444444, N
277586, 771.0722222222222, N
277860, 771.8333333333334, N
278124, 772.5666666666667, N
278381, 773.2805555555556, N
278626, 773.9611111111111, N
278851, 774.5861111111111, N
279063, 775.175, N
279278, 775.7722222222222, N
279492, 776.3666666666667, N
279710, 776.9722222222222, N
279939, 777.6083333333333, N
280185, 778.2916666666666, N
280454, 779.0388888888889, N
280718, 779.7722222222222, N
280961, 780.4472222222222, N
281205, 781.125, N
281447, 781.7972222222222, N
281686, 782.4611111111111, N
281932, 783.1444444444444, N
282185, 783.8472222222222, N
282438, 784.55, N
282676, 785.2111111111111, N
282919, 785.8861111111111, N
283161, 786.5583333333333, N
283398, 787.2166666666667, N
283629, 787.8583333333333, N
283864, 788.5111111111111, N
284101, 789.1694444444445, N
284341, 789.8361111111111, N
284590, 790.5277777777778, N
284837, 791.2138888888888, N
285078, 791.8833333333333, N
285298, 792.4944444444444, N
285526, 793.1277777777777, N
285759, 793.775, N
285988, 794.4111111111112, N
286221, 795.0583333333333, N
286465, 795.7361111111111, N
286698, 796.3833333333333, N
286936, 797.0444444444445, N
287162, 797.6722222222222, N
287395, 798.3194444444445, N
287632, 798.9777777777778, N
287864, 799.6222222222223, N
288087, 800.2416666666667, N
288306, 800.85, N
288535, 801.4861111111111, N
288767, 802.1305555555556, N
289003, 802.7861111111112, N
289237, 803.4361111111111, N
289475, 804.0972222222222, N
289720, 804.7777777777778, N
289948, 805.4111111111112, N
290172, 806.0333333333333, N
290410, 806.6944444444445, N
290648, 807.3555555555556, N
290887, 808.0194444444444, N
291116, 808.6555555555556, N
291349, 809.3027777777778, N
291575, 809.9305555555555, N
291790, 810.5277777777778, R
292001, 811.1138888888889, R
292209, 811.6916666666667, R
292409, 812.2472222222223, R
292617, 812.825, R
292828, 813.4111111111112, R
293055, 814.0416666666666, R
293288, 814.6888888888889, R
293513, 815.3138888888889, R
293736, 815.9333333333333, R
293953, 816.5361111111112, R
294166, 817.1277777777777, R
294382, 817.7277777777778, R
294601, 818.3361111111111, R
294829, 818.9694444444444, R
295057, 819.6027777777778, R
295285, 820.2361111111111, R
295524, 820.9, R
295756, 821.5444444444445, R
295982, 822.1722222222222, R
296213, 822.8138888888889, R
296439, 823.4416666666667, R
296657, 824.0472222222222, R
296876, 824.6555555555556, R
297105, 825.2916666666666, R
297344, 825.9555555555555, R
297584, 826.6222222222223, R
297818, 827.2722222222222, R
298047, 827.9083333333333, R
298277, 828.5472222222222, R
298497, 829.1583333333333, R
298715, 829.7638888888889, R
298946, 830.4055555555556, R
299184, 831.0666666666667, R
299428, 831.7444444444444, R
299657, 832.3805555555556, R
299892, 833.0333333333333, R
300125, 833.6805555555555, R
300352, 834.3111111111111, R
300573, 834.925, R
300797, 835.5472222222222, R
301016, 836.1555555555556, R
301243, 836.7861111111112, R
301472, 837.4222222222222, R
301710, 838.0833333333334, R
301947, 838.7416666666667, R
302181, 839.3916666666667, R
302405, 840.0138888888889, R
302620, 840.6111111111111, R
302838, 841.2166666666667, R
303054, 841.8166666666667, R
303277, 842.4361111111111, R
303525, 843.125, R
303781, 843.8361111111111, R
304037, 844.5472222222222, R
304275, 845.2083333333334, R
304503, 845.8416666666667, R
304723, 846.4527777777778, R
304938, 847.05, R
305154, 847.65, R
305373, 848.2583333333333, R
305609, 848.9138888888889, R
305863, 849.6194444444444, R
306126, 850.35, R
306383, 851.0638888888889, R
306630, 851.75, R
306875, 852.4305555555555, R
307108, 853.0777777777778, R
307338, 853.7166666666667, R
307572, 854.3666666666667, R
307806, 855.0166666666667, R
308048, 855.6888888888889, R
308290, 856.3611111111111, R
308529, 857.025, R
308769, 857.6916666666667, R
309003, 858.3416666666667, R
309242, 859.0055555555556, R
309470, 859.6388888888889, R
309698, 860.2722222222222, R
309928, 860.9111111111112, R
310170, 861.5833333333334, R
310415, 862.2638888888889, R
310654, 862.9277777777778, R
310893, 863.5916666666667, R
311120, 864.2222222222222, R
311347, 864.8527777777778, R
311573, 865.4805555555556, R
311797, 866.1027777777778, R
312024, 866.7333333333333, R
312261, 867.3916666666667, R
312493, 868.0361111111112, R
312724, 868.6777777777778, R
312957, 869.325, R
313190, 869.9722222222222, R
313413, 870.5916666666667, R
313631, 871.1972222222222, R
313852, 871.8111111111111, R
314080, 872.4444444444445, R
314309, 873.0805555555555, R
314540, 873.7222222222222, R
314789, 874.4138888888889, R
315038, 875.1055555555556, R
315276, 875.7666666666667, R
315497, 876.3805555555556, R
315710, 876.9722222222222, R
315927, 877.575, R
316152, 878.2, R
316376, 878.8222222222222, R
316611, 879.475, R
316846, 880.1277777777777, R
317097, 880.825, R
317357, 881.5472222222222, R
317597, 882.2138888888888, R
317835, 882.875, R
318066, 883.5166666666667, R
318286, 884.1277777777777, R
318506, 884.7388888888889, R
318728, 885.3555555555556, R
318960, 886.0, R
319210, 886.6944444444445, R
319455, 887.375, R
319685, 888.0138888888889, R
319902, 888.6166666666667, R
320120, 889.2222222222222, R
320349, 889.8583333333333, R
320590, 890.5277777777778, R
320844, 891.2333333333333, R
321102, 891.95, R
321355, 892.6527777777778, R
321591, 893.3083333333333, R
321825, 893.9583333333334, R
322058, 894.6055555555556, R
322298, 895.2722222222222, R
322540, 895.9444444444445, R
322777, 896.6027777777778, R
322901, 896.9472222222222, |
323020, 897.2777777777778, R
323260, 897.9444444444445, R
323494, 898.5944444444444, R
323724, 899.2333333333333, R
323957, 899.8805555555556, R
324188, 900.5222222222222, R
324411, 901.1416666666667, R
324628, 901.7444444444444, R
324849, 902.3583333333333, R
325094, 903.0388888888889, R
325350, 903.75, R
325608, 904.4666666666667, R
325850, 905.1388888888889, R
326083, 905.7861111111112, R
326306, 906.4055555555556, R
326529, 907.025, R
326758, 907.6611111111112, R
326993, 908.3138888888889, R
327239, 908.9972222222223, R
327479, 909.6638888888889, R
327733, 910.3694444444444, R
327995, 911.0972222222222, R
328242, 911.7833333333333, R
328479, 912.4416666666667, R
328701, 913.0583333333333, R
328921, 913.6694444444445, R
329145, 914.2916666666666, R
329388, 914.9666666666667, R
329648, 915.6888888888889, R
329904, 916.4, R
330152, 917.0888888888888, R
330390, 917.75, R
330622, 918.3944444444444, R
330850, 919.0277777777778, R
331069, 919.6361111111111, R
331287, 920.2416666666667, R
331515, 920.875, R
331764, 921.5666666666667, R
332017, 922.2694444444444, R
332280, 923.0, R
332536, 923.7111111111111, R
332765, 924.3472222222222, R
332995, 924.9861111111111, R
333225, 925.625, R
333456, 926.2666666666667, R
333701, 926.9472222222222, R
333939, 927.6083333333333, R
334169, 928.2472222222223, R
334404, 928.9, R
334637, 929.5472222222222, R
334862, 930.1722222222222, R
335093, 930.8138888888889, R
335324, 931.4555555555555, R
335552, 932.0888888888888, R
335782, 932.7277777777778, R
336022, 933.3944444444444, R
336280, 934.1111111111111, R
336550, 934.8611111111111, R
336798, 935.55, R
337030, 936.1944444444445, R
337257, 936.825, R
337477, 937.4361111111111, R
337691, 938.0305555555556, R
337913, 938.6472222222222, R
338137, 939.2694444444444, R
338361, 939.8916666666667, R
338591, 940.5305555555556, R
338828, 941.1888888888889, R
339083, 941.8972222222222, R
339335, 942.5972222222222, R
339578, 943.2722222222222, R
339809, 943.9138888888889, R
340040, 944.5555555555555, R
340277, 945.2138888888888, R
340518, 945.8833333333333, R
340768, 946.5777777777778, R
341020, 947.2777777777778, R
341267, 947.9638888888888, R
341491, 948.5861111111111, R
341706, 949.1833333333333, R
341929, 949.8027777777778, R
342166, 950.4611111111111, R
342412, 951.1444444444444, R
342663, 951.8416666666667, R
342909, 952.525, R
343158, 953.2166666666667, R
343405, 953.9027777777778, R
343652, 954.5888888888888, R
343891, 955.2527777777777, R
344123, 955.8972222222222, R
344346, 956.5166666666667, R
344566, 957.1277777777777, R
344800, 957.7777777777778, R
345053, 958.4805555555556, R
345301, 959.1694444444445, R
345549, 959.8583333333333, R
345785, 960.5138888888889, R
346020, 961.1666666666666, R
346258, 961.8277777777778, R
346501, 962.5027777777777, R
346752, 963.2, R
346986, 963.85, R
347226, 964.5166666666667, R
347461, 965.1694444444445, R
347701, 965.8361111111111, R
347929, 966.4694444444444, R
348149, 967.0805555555555, R
348377, 967.7138888888888, R
348624, 968.4, R
348887, 969.1305555555556, N
349155, 969.875, N
349414, 970.5944444444444, N
349664, 971.2888888888889, N
349903, 971.9527777777778, N
350139, 972.6083333333333, N
350363, 973.2305555555556, N
350590, 973.8611111111111, N
350831, 974.5305555555556, N
351092, 975.2555555555556, N
351364, 976.0111111111111, N
351646, 976.7944444444445, N
351898, 977.4944444444444, N
352145, 978.1805555555555, N
352389, 978.8583333333333, N
352633, 979.5361111111112, N
352857, 980.1583333333333, N
353079, 980.775, N
353314, 981.4277777777778, N
353559, 982.1083333333333, N
353814, 982.8166666666667, N
354059, 983.4972222222223, N
354306, 984.1833333333333, N
354574, 984.9277777777778, N
354846, 985.6833333333333, N
355108, 986.4111111111112, N
355353, 987.0916666666667, N
355598, 987.7722222222222, N
355837, 988.4361111111111, N
356069, 989.0805555555555, N
356307, 989.7416666666667, N
356539, 990.3861111111111, N
356769, 991.025, N
357016, 991.7111111111111, N
357276, 992.4333333333333, N
357544, 993.1777777777778, N
357799, 993.8861111111111, N
358068, 994.6333333333333, N
358341, 995.3916666666667, N
358597, 996.1027777777778, N
358844, 996.7888888888889, N
359066, 997.4055555555556, N
359291, 998.0305555555556, N
359531, 998.6972222222222, N
359772, 999.3666666666667, N
360015, 1000.0416666666666, N
360255, 1000.7083333333334, N
360499, 1001.3861111111111, N
360741, 1002.0583333333333, N
360985, 1002.7361111111111, N
361217, 1003.3805555555556, N
361457, 1004.0472222222222, N
361713, 1004.7583333333333, N
361965, 1005.4583333333334, N
362216, 1006.1555555555556, N
362482, 1006.8944444444444, N
362738, 1007.6055555555556, N
362972, 1008.2555555555556, N
363197, 1008.8805555555556, N
363436, 1009.5444444444445, N
363672, 1010.2, N
363907, 1010.8527777777778, N
364144, 1011.5111111111111, N
364384, 1012.1777777777778, N
364632, 1012.8666666666667, N
364865, 1013.5138888888889, N
365098, 1014.1611111111112, N
365326, 1014.7944444444445, N
365562, 1015.45, N
365807, 1016.1305555555556, N
366045, 1016.7916666666666, N
366277, 1017.4361111111111, N
366511, 1018.0861111111111, N
366745, 1018.7361111111111, R
366972, 1019.3666666666667, R
367191, 1019.975, R
367393, 1020.5361111111112, R
367592, 1021.0888888888888, R
367801, 1021.6694444444445, R
368029, 1022.3027777777778, R
368266, 1022.9611111111111, R
368511, 1023.6416666666667, R
368754, 1024.3166666666666, R
368992, 1024.9777777777779, R
369225, 1025.625, R
369447, 1026.2416666666666, R
369670, 1026.861111111111, R
369877, 1027.4361111111111, R
370087, 1028.0194444444444, R
370316, 1028.6555555555556, R
370546, 1029.2944444444445, R
370789, 1029.9694444444444, R
371046, 1030.6833333333334, R
371296, 1031.3777777777777, R
371537, 1032.0472222222222, R
371760, 1032.6666666666667, R
371999, 1033.3305555555555, R
372242, 1034.0055555555555, R
372493, 1034.7027777777778, R
372747, 1035.4083333333333, R
373000, 1036.111111111111, R
373238, 1036.7722222222221, R
373460, 1037.388888888889, R
373678, 1037.9944444444445, R
373890, 1038.5833333333333, R
374097, 1039.1583333333333, R
374305, 1039.736111111111, R
374525, 1040.3472222222222, R
374761, 1041.0027777777777, R
375008, 1041.6888888888889, R
375246, 1042.35, R
375486, 1043.0166666666667, R
375735, 1043.7083333333333, R
375964, 1044.3444444444444, R
376184, 1044.9555555555555, R
376404, 1045.5666666666666, R
376622, 1046.1722222222222, R
376842, 1046.7833333333333, R
377067, 1047.4083333333333, R
377298, 1048.05, R
377526, 1048.6833333333334, R
377757, 1049.325, R
377989, 1049.9694444444444, R
378222, 1050.6166666666666, R
378453, 1051.2583333333334, R
378679, 1051.8861111111112, R
378908, 1052.5222222222221, R
379137, 1053.1583333333333, R
379377, 1053.825, R
379627, 1054.5194444444444, R
379867, 1055.1861111111111, R
380105, 1055.8472222222222, R
380335, 1056.486111111111, R
380556, 1057.1, R
380775, 1057.7083333333333, R
380993, 1058.3138888888889, R
381221, 1058.9472222222223, R
381461, 1059.6138888888888, R
381692, 1060.2555555555555, R
381920, 1060.888888888889, R
382148, 1061.5222222222221, R
382377, 1062.1583333333333, R
382596, 1062.7666666666667, R
382807, 1063.3527777777779, R
383020, 1063.9444444444443, R
383243, 1064.5638888888889, R
383474, 1065.2055555555555, R
383704, 1065.8444444444444, R
383942, 1066.5055555555555, R
384186, 1067.1833333333334, R
384424, 1067.8444444444444, R
384665, 1068.513888888889, R
384901, 1069.1694444444445, R
385128, 1069.8, R
385346, 1070.4055555555556, R
385560, 1071.0, R
385778, 1071.6055555555556, R
385990, 1072.1944444444443, R
386203, 1072.786111111111, R
386428, 1073.411111111111, R
386650, 1074.0277777777778, R
386872, 1074.6444444444444, R
387102, 1075.2833333333333, R
387329, 1075.9138888888888, R
387560, 1076.5555555555557, R
387788, 1077.1888888888889, R
388023, 1077.8416666666667, R
388268, 1078.5222222222221, R
388508, 1079.1888888888889, R
388738, 1079.8277777777778, R
388959, 1080.4416666666666, R
389178, 1081.05, R
389397, 1081.6583333333333, R
389617, 1082.2694444444444, R
389841, 1082.8916666666667, R
390074, 1083.5388888888888, R
390309, 1084.1916666666666, R
390541, 1084.8361111111112, R
390771, 1085.475, R
391001, 1086.1138888888888, R
391224, 1086.7333333333333, R
391447, 1087.3527777777779, R
391664, 1087.9555555555555, R
391887, 1088.575, R
392121, 1089.225, R
392349, 1089.8583333333333, R
392585, 1090.513888888889, R
392812, 1091.1444444444444, R
393026, 1091.7388888888888, R
393238, 1092.3277777777778, R
393453, 1092.925, R
393668, 1093.5222222222221, R
393890, 1094.138888888889, R
394117, 1094.7694444444444, R
394353, 1095.425, R
394582, 1096.0611111111111, R
394823, 1096.7305555555556, R
395074, 1097.4277777777777, R
395314, 1098.0944444444444, R
395548, 1098.7444444444445, R
395794, 1099.4277777777777, R
396047, 1100.1305555555555, N
396294, 1100.8166666666666, N
396545, 1101.513888888889, N
396804, 1102.2333333333333, N
397052, 1102.9222222222222, N
397316, 1103.6555555555556, N
397563, 1104.3416666666667, N
397808, 1105.0222222222221, N
398041, 1105.6694444444445, N
398271, 1106.3083333333334, N
398517, 1106.9916666666666, N
398786, 1107.7388888888888, N
399052, 1108.4777777777779, N
399302, 1109.1722222222222, N
399544, 1109.8444444444444, N
399787, 1110.5194444444444, N
400023, 1111.175, N
400073, 1111.3138888888889, ~
400260, 1111.8333333333333, N
400481, 1112.4472222222223, N
400706, 1113.0722222222223, N
400946, 1113.7388888888888, N
401195, 1114.4305555555557, N
401445, 1115.125, N
401701, 1115.8361111111112, N
401859, 1116.275, ~
401950, 1116.5277777777778, N
402187, 1117.1861111111111, N
402416, 1117.8222222222223, N
402654, 1118.4833333333333, N
402894, 1119.15, N
403139, 1119.8305555555555, N
403373, 1120.4805555555556, N
403615, 1121.1527777777778, N
403862, 1121.838888888889, N
404102, 1122.5055555555555, N
404337, 1123.1583333333333, N
404576, 1123.8222222222223, N
404809, 1124.4694444444444, N
404855, 1124.5972222222222, ~
405040, 1125.111111111111, N
405279, 1125.775, N
405526, 1126.4611111111112, N
405767, 1127.1305555555555, N
406002, 1127.7833333333333, N
406230, 1128.4166666666667, N
406365, 1128.7916666666667, ~
406455, 1129.0416666666667, N
406683, 1129.675, N
406915, 1130.3194444444443, N
407160, 1131.0, N
407416, 1131.7111111111112, N
407661, 1132.3916666666667, N
407908, 1133.0777777777778, N
408154, 1133.7611111111112, N
408404, 1134.4555555555555, N
408643, 1135.1194444444445, N
408875, 1135.763888888889, N
409099, 1136.3861111111112, N
409329, 1137.025, N
409568, 1137.6888888888889, N
409802, 1138.338888888889, N
410043, 1139.0083333333334, N
410281, 1139.6694444444445, N
410509, 1140.3027777777777, N
410744, 1140.9555555555555, N
410979, 1141.6083333333333, N
411218, 1142.2722222222221, N
411472, 1142.9777777777779, N
411725, 1143.6805555555557, N
411970, 1144.361111111111, N
412214, 1145.0388888888888, N
412454, 1145.7055555555555, N
412681, 1146.3361111111112, N
412907, 1146.963888888889, N
413136, 1147.6, N
413365, 1148.236111111111, N
413597, 1148.8805555555555, N
413838, 1149.55, N
414093, 1150.2583333333334, N
414354, 1150.9833333333333, N
414600, 1151.6666666666667, N
414836, 1152.3222222222223, N
415074, 1152.9833333333333, N
415305, 1153.625, N
415535, 1154.263888888889, N
415772, 1154.9222222222222, N
416022, 1155.6166666666666, N
416267, 1156.2972222222222, N
416515, 1156.986111111111, N
416757, 1157.6583333333333, N
417005, 1158.3472222222222, N
417241, 1159.0027777777777, N
417476, 1159.6555555555556, N
417711, 1160.3083333333334, N
417955, 1160.986111111111, N
418212, 1161.7, N
418466, 1162.4055555555556, N
418705, 1163.0694444444443, N
418935, 1163.7083333333333, N
419157, 1164.325, N
419370, 1164.9166666666667, R
419582, 1165.5055555555555, R
419804, 1166.1222222222223, R
420027, 1166.7416666666666, R
420259, 1167.3861111111112, R
420497, 1168.0472222222222, R
420747, 1168.7416666666666, R
420996, 1169.4333333333334, R
421230, 1170.0833333333333, R
421467, 1170.7416666666666, R
421699, 1171.3861111111112, R
421920, 1172.0, R
422139, 1172.6083333333333, R
422362, 1173.2277777777779, R
422597, 1173.8805555555555, R
422835, 1174.5416666666667, R
423068, 1175.1888888888889, R
423296, 1175.8222222222223, R
423518, 1176.4388888888889, R
423743, 1177.0638888888889, R
423969, 1177.6916666666666, R
424205, 1178.3472222222222, R
424447, 1179.0194444444444, R
424686, 1179.6833333333334, R
424935, 1180.375, R
425178, 1181.05, R
425424, 1181.7333333333333, R
425659, 1182.3861111111112, R
425886, 1183.0166666666667, R
426109, 1183.6361111111112, R
426330, 1184.25, R
426559, 1184.8861111111112, R
426795, 1185.5416666666667, R
427050, 1186.25, R
427298, 1186.9388888888889, R
427544, 1187.6222222222223, R
427787, 1188.2972222222222, R
428025, 1188.9583333333333, R
428259, 1189.6083333333333, R
428497, 1190.2694444444444, R
428733, 1190.925, R
428975, 1191.5972222222222, R
429217, 1192.2694444444444, R
429462, 1192.95, R
429711, 1193.6416666666667, R
429953, 1194.3138888888889, R
430196, 1194.9888888888888, R
430437, 1195.6583333333333, R
430678, 1196.3277777777778, R
430915, 1196.986111111111, R
431170, 1197.6944444444443, R
431429, 1198.4138888888888, R
431674, 1199.0944444444444, R
431904, 1199.7333333333333, R
432124, 1200.3444444444444, R
432337, 1200.9361111111111, R
432553, 1201.536111111111, R
432776, 1202.1555555555556, R
433007, 1202.7972222222222, R
433253, 1203.4805555555556, R
433506, 1204.1833333333334, R
433746, 1204.85, R
433993, 1205.536111111111, R
434237, 1206.213888888889, R
434457, 1206.825, R
434675, 1207.4305555555557, R
434894, 1208.0388888888888, R
435123, 1208.675, R
435358, 1209.3277777777778, R
435593, 1209.9805555555556, R
435839, 1210.6638888888888, R
436096, 1211.3777777777777, R
436331, 1212.0305555555556, R
436562, 1212.6722222222222, R
436799, 1213.3305555555555, R
437043, 1214.0083333333334, R
437284, 1214.6777777777777, R
437537, 1215.3805555555555, R
437793, 1216.0916666666667, R
438045, 1216.7916666666667, R
438300, 1217.5, R
438550, 1218.1944444444443, R
438790, 1218.861111111111, R
439025, 1219.513888888889, R
439258, 1220.161111111111, R
439494, 1220.8166666666666, R
439733, 1221.4805555555556, R
439990, 1222.1944444444443, R
440251, 1222.9194444444445, R
440504, 1223.6222222222223, R
440737, 1224.2694444444444, R
440977, 1224.9361111111111, R
441216, 1225.6, R
441448, 1226.2444444444445, R
441687, 1226.9083333333333, R
441944, 1227.6222222222223, R
442191, 1228.3083333333334, R
442434, 1228.9833333333333, R
442684, 1229.6777777777777, R
442927, 1230.3527777777779, R
443161, 1231.0027777777777, R
443392, 1231.6444444444444, R
443626, 1232.2944444444445, R
443873, 1232.9805555555556, R
444122, 1233.6722222222222, R
444374, 1234.3722222222223, R
444633, 1235.0916666666667, R
444887, 1235.7972222222222, R
445123, 1236.4527777777778, R
445353, 1237.0916666666667, R
445578, 1237.7166666666667, R
445805, 1238.3472222222222, R
446025, 1238.9583333333333, R
446251, 1239.5861111111112, R
446475, 1240.2083333333333, R
446708, 1240.8555555555556, R
446953, 1241.536111111111, R
447182, 1242.1722222222222, R
447404, 1242.7888888888888, R
447635, 1243.4305555555557, R
447862, 1244.0611111111111, R
448091, 1244.6972222222223, R
448324, 1245.3444444444444, R
448574, 1246.0388888888888, R
448830, 1246.75, R
449073, 1247.425, R
449311, 1248.0861111111112, R
449548, 1248.7444444444445, R
449789, 1249.4138888888888, R
450016, 1250.0444444444445, R
450252, 1250.7, R
450495, 1251.375, R
450736, 1252.0444444444445, R
450977, 1252.713888888889, R
451218, 1253.3833333333334, R
451459, 1254.0527777777777, R
451698, 1254.7166666666667, R
451930, 1255.361111111111, R
452169, 1256.025, R
452403, 1256.675, R
452641, 1257.3361111111112, R
452881, 1258.0027777777777, R
453128, 1258.6888888888889, R
453369, 1259.3583333333333, R
453597, 1259.9916666666666, R
453826, 1260.6277777777777, R
454051, 1261.2527777777777, R
454282, 1261.8944444444444, R
454521, 1262.5583333333334, R
454765, 1263.236111111111, R
455009, 1263.9138888888888, R
455252, 1264.588888888889, R
455500, 1265.2777777777778, R
455742, 1265.95, R
455978, 1266.6055555555556, R
456209, 1267.2472222222223, R
456437, 1267.8805555555555, R
456672, 1268.5333333333333, R
456903, 1269.175, R
457151, 1269.8638888888888, R
457400, 1270.5555555555557, R
457642, 1271.2277777777779, R
457879, 1271.8861111111112, R
458119, 1272.5527777777777, R
458352, 1273.2, R
458574, 1273.8166666666666, R
458811, 1274.475, R
459053, 1275.1472222222221, R
459290, 1275.8055555555557, R
459530, 1276.4722222222222, R
459768, 1277.1333333333334, R
460008, 1277.8, R
460240, 1278.4444444444443, R
460462, 1279.0611111111111, R
460689, 1279.6916666666666, R
460923, 1280.3416666666667, R
461164, 1281.0111111111112, R
461401, 1281.6694444444445, R
461643, 1282.3416666666667, R
461887, 1283.0194444444444, R
462118, 1283.661111111111, R
462346, 1284.2944444444445, R
462571, 1284.9194444444445, R
462799, 1285.5527777777777, R
463028, 1286.1888888888889, R
463262, 1286.838888888889, R
463508, 1287.5222222222221, R
463750, 1288.1944444444443, R
463996, 1288.8777777777777, R
464242, 1289.5611111111111, R
464487, 1290.2416666666666, R
464718, 1290.8833333333334, R
464944, 1291.5111111111112, R
465176, 1292.1555555555556, R
465411, 1292.8083333333334, R
465661, 1293.5027777777777, R
465922, 1294.2277777777779, R
466175, 1294.9305555555557, R
466418, 1295.6055555555556, R
466648, 1296.2444444444445, R
466876, 1296.8777777777777, R
467101, 1297.5027777777777, R
467328, 1298.1333333333334, R
467559, 1298.775, R
467796, 1299.4333333333334, R
468051, 1300.1416666666667, R
468296, 1300.8222222222223, R
468547, 1301.5194444444444, R
468797, 1302.213888888889, R
469038, 1302.8833333333334, R
469270, 1303.5277777777778, R
469504, 1304.1777777777777, R
469745, 1304.8472222222222, R
469985, 1305.513888888889, R
470230, 1306.1944444444443, R
470486, 1306.9055555555556, R
470737, 1307.6027777777779, R
470978, 1308.2722222222221, R
471210, 1308.9166666666667, R
471449, 1309.5805555555555, R
471696, 1310.2666666666667, R
471940, 1310.9444444444443, R
472190, 1311.638888888889, R
472450, 1312.361111111111, R
472700, 1313.0555555555557, R
472941, 1313.725, R
473185, 1314.4027777777778, R
473427, 1315.075, R
473656, 1315.7111111111112, R
473893, 1316.3694444444445, R
474137, 1317.0472222222222, R
474386, 1317.7388888888888, R
474633, 1318.425, R
474886, 1319.1277777777777, R
475131, 1319.8083333333334, R
475369, 1320.4694444444444, R
475615, 1321.1527777777778, R
475859, 1321.8305555555555, R
476100, 1322.5, R
476346, 1323.1833333333334, R
476601, 1323.8916666666667, R
476854, 1324.5944444444444, R
477100, 1325.2777777777778, R
477348, 1325.9666666666667, R
477591, 1326.6416666666667, R
477822, 1327.2833333333333, R
478047, 1327.9083333333333, R
478286, 1328.5722222222223, R
478539, 1329.275, R
478785, 1329.9583333333333, R
479038, 1330.661111111111, R
479293, 1331.3694444444445, R
479539, 1332.0527777777777, R
479768, 1332.6888888888889, R
480001, 1333.3361111111112, R
480240, 1334.0, R
480484, 1334.6777777777777, R
480736, 1335.3777777777777, R
480991, 1336.0861111111112, R
481246, 1336.7944444444445, R
481493, 1337.4805555555556, R
481733, 1338.1472222222221, R
481978, 1338.8277777777778, R
482225, 1339.513888888889, R
482468, 1340.1888888888889, R
482709, 1340.8583333333333, R
482959, 1341.5527777777777, R
483223, 1342.286111111111, R
483483, 1343.0083333333334, R
483734, 1343.7055555555555, R
483969, 1344.3583333333333, R
484209, 1345.025, R
484449, 1345.6916666666666, R
484687, 1346.3527777777779, R
484937, 1347.0472222222222, R
485208, 1347.8, N
485483, 1348.5638888888889, N
485739, 1349.275, N
486004, 1350.0111111111112, N
486263, 1350.7305555555556, N
486508, 1351.411111111111, N
486746, 1352.0722222222223, N
486997, 1352.7694444444444, N
487262, 1353.5055555555555, N
487519, 1354.2194444444444, N
487777, 1354.9361111111111, N
488036, 1355.6555555555556, N
488287, 1356.3527777777779, N
488526, 1357.0166666666667, N
488772, 1357.7, N
489031, 1358.4194444444445, N
489288, 1359.1333333333334, N
489539, 1359.8305555555555, N
489782, 1360.5055555555555, N
490029, 1361.1916666666666, N
490276, 1361.8777777777777, N
490524, 1362.5666666666666, N
490763, 1363.2305555555556, N
491007, 1363.9083333333333, N
491268, 1364.6333333333334, N
491534, 1365.3722222222223, N
491796, 1366.1, N
492068, 1366.8555555555556, N
492324, 1367.5666666666666, N
492560, 1368.2222222222222, N
492792, 1368.8666666666666, N
493027, 1369.5194444444444, N
493260, 1370.1666666666667, N
493498, 1370.8277777777778, N
493746, 1371.5166666666667, N
494001, 1372.225, N
494253, 1372.925, N
494502, 1373.6166666666666, N
494745, 1374.2916666666667, N
494975, 1374.9305555555557, N
495203, 1375.5638888888889, N
495425, 1376.1805555555557, N
495652, 1376.8111111111111, N
495896, 1377.4888888888888, N
496141, 1378.1694444444445, N
496380, 1378.8333333333333, N
496619, 1379.4972222222223, N
496851, 1380.1416666666667, N
497073, 1380.7583333333334, N
497296, 1381.3777777777777, N
497528, 1382.0222222222221, N
497768, 1382.6888888888889, N
498016, 1383.3777777777777, N
498257, 1384.0472222222222, N
498503, 1384.7305555555556, N
498757, 1385.4361111111111, N
498996, 1386.1, N
499228, 1386.7444444444445, N
499464, 1387.4, N
499709, 1388.0805555555555, N
499939, 1388.7194444444444, N
500184, 1389.4, N
500449, 1390.1361111111112, N
500704, 1390.8444444444444, N
500954, 1391.5388888888888, N
501201, 1392.225, N
501443, 1392.8972222222221, N
501676, 1393.5444444444445, N
501913, 1394.2027777777778, N
502164, 1394.9, N
502327, 1395.3527777777779, ~
502421, 1395.6138888888888, N
502485, 1395.7916666666667, ~
502677, 1396.325, N
502922, 1397.0055555555555, N
503184, 1397.7333333333333, N
503448, 1398.4666666666667, N
503702, 1399.1722222222222, N
503950, 1399.861111111111, N
504109, 1400.3027777777777, ~
504183, 1400.5083333333334, N
504414, 1401.15, N
504652, 1401.8111111111111, N
504883, 1402.4527777777778, R
505112, 1403.088888888889, R
505334, 1403.7055555555555, R
505558, 1404.3277777777778, R
505781, 1404.9472222222223, R
506003, 1405.5638888888889, R
506229, 1406.1916666666666, R
506463, 1406.8416666666667, R
506689, 1407.4694444444444, R
506926, 1408.1277777777777, R
507176, 1408.8222222222223, R
507419, 1409.4972222222223, R
507667, 1410.1861111111111, R
507905, 1410.8472222222222, R
508132, 1411.4777777777779, R
508357, 1412.1027777777779, R
508577, 1412.713888888889, R
508805, 1413.3472222222222, R
509034, 1413.9833333333333, R
509253, 1414.5916666666667, R
509468, 1415.1888888888889, R
509677, 1415.7694444444444, R
509888, 1416.3555555555556, R
510099, 1416.9416666666666, R
510313, 1417.536111111111, R
510551, 1418.1972222222223, R
510798, 1418.8833333333334, R
511037, 1419.5472222222222, R
511281, 1420.225, R
511538, 1420.9388888888889, R
511795, 1421.6527777777778, R
512029, 1422.3027777777777, R
512262, 1422.95, R
512489, 1423.5805555555555, R
512719, 1424.2194444444444, R
512957, 1424.8805555555555, R
513191, 1425.5305555555556, R
513428, 1426.1888888888889, R
513676, 1426.8777777777777, R
513928, 1427.5777777777778, R
514172, 1428.2555555555555, R
514400, 1428.888888888889, R
514641, 1429.5583333333334, R
514887, 1430.2416666666666, R
515144, 1430.9555555555555, R
515390, 1431.638888888889, R
515650, 1432.361111111111, R
515911, 1433.0861111111112, R
516162, 1433.7833333333333, R
516399, 1434.4416666666666, R
516633, 1435.0916666666667, R
516872, 1435.7555555555555, R
517108, 1436.411111111111, R
517352, 1437.088888888889, R
517616, 1437.8222222222223, R
517882, 1438.5611111111111, R
518149, 1439.3027777777777, R
518401, 1440.0027777777777, R
518650, 1440.6944444444443, R
518898, 1441.3833333333334, R
519139, 1442.0527777777777, R
519382, 1442.7277777777779, R
519634, 1443.4277777777777, R
519896, 1444.1555555555556, R
520145, 1444.8472222222222, R
520393, 1445.536111111111, R
520647, 1446.2416666666666, R
520891, 1446.9194444444445, R
521116, 1447.5444444444445, R
521350, 1448.1944444444443, R
521594, 1448.8722222222223, R
521848, 1449.5777777777778, R
522109, 1450.3027777777777, R
522384, 1451.0666666666666, R
522646, 1451.7944444444445, R
522890, 1452.4722222222222, R
523128, 1453.1333333333334, R
523362, 1453.7833333333333, R
523591, 1454.4194444444445, R
523823, 1455.0638888888889, R
524058, 1455.7166666666667, R
524298, 1456.3833333333334, R
524545, 1457.0694444444443, R
524786, 1457.7388888888888, R
525031, 1458.4194444444445, R
525271, 1459.0861111111112, R
525496, 1459.7111111111112, R
525735, 1460.375, R
525980, 1461.0555555555557, R
526231, 1461.7527777777777, R
526493, 1462.4805555555556, R
526756, 1463.2111111111112, R
527008, 1463.911111111111, R
527249, 1464.5805555555555, R
527503, 1465.286111111111, R
527774, 1466.0388888888888, N
528054, 1466.8166666666666, N
528334, 1467.5944444444444, N
528604, 1468.3444444444444, N
528851, 1469.0305555555556, N
529105, 1469.736111111111, N
529354, 1470.4277777777777, N
529589, 1471.0805555555555, N
529818, 1471.7166666666667, N
530071, 1472.4194444444445, N
530356, 1473.2111111111112, N
530633, 1473.9805555555556, N
530903, 1474.7305555555556, N
531183, 1475.5083333333334, N
531451, 1476.2527777777777, N
531693, 1476.925, N
531932, 1477.588888888889, N
532175, 1478.263888888889, N
532469, 1479.0805555555555, N
532807, 1480.0194444444444, N
533161, 1481.0027777777777, N
533493, 1481.925, N
533796, 1482.7666666666667, N
534066, 1483.5166666666667, N
534314, 1484.2055555555555, N
534560, 1484.888888888889, N
534809, 1485.5805555555555, N
535056, 1486.2666666666667, N
535306, 1486.9611111111112, N
535562, 1487.6722222222222, N
535815, 1488.375, N
536079, 1489.1083333333333, N
536351, 1489.8638888888888, N
536619, 1490.6083333333333, N
536876, 1491.3222222222223, N
537141, 1492.0583333333334, N
537406, 1492.7944444444445, N
537666, 1493.5166666666667, N
537911, 1494.1972222222223, N
538154, 1494.8722222222223, N
538389, 1495.525, N
538621, 1496.1694444444445, N
538851, 1496.8083333333334, N
539074, 1497.4277777777777, R
539309, 1498.0805555555555, R
539555, 1498.763888888889, R
539793, 1499.425, R
540020, 1500.0555555555557, R
540237, 1500.6583333333333, R
540462, 1501.2833333333333, R
540690, 1501.9166666666667, R
540915, 1502.5416666666667, R
541156, 1503.2111111111112, R
541411, 1503.9194444444445, R
541668, 1504.6333333333334, R
541910, 1505.3055555555557, R
542147, 1505.963888888889, R
542380, 1506.611111111111, R
542605, 1507.236111111111, R
542829, 1507.8583333333333, R
543054, 1508.4833333333333, R
543290, 1509.138888888889, R
543550, 1509.861111111111, R
543801, 1510.5583333333334, R
544044, 1511.2333333333333, R
544294, 1511.9277777777777, R
544527, 1512.575, R
544753, 1513.2027777777778, R
544981, 1513.8361111111112, R
545216, 1514.4888888888888, R
545451, 1515.1416666666667, R
545692, 1515.8111111111111, R
545933, 1516.4805555555556, R
546186, 1517.1833333333334, R
546433, 1517.8694444444445, R
546668, 1518.5222222222221, R
546903, 1519.175, R
547142, 1519.838888888889, R
547380, 1520.5, R
547624, 1521.1777777777777, R
547876, 1521.8777777777777, R
548130, 1522.5833333333333, R
548374, 1523.2611111111112, R
548616, 1523.9333333333334, R
548860, 1524.611111111111, R
549101, 1525.2805555555556, R
549352, 1525.9777777777779, R
549610, 1526.6944444444443, R
549862, 1527.3944444444444, R
550122, 1528.1166666666666, R
550389, 1528.8583333333333, R
550651, 1529.5861111111112, R
550896, 1530.2666666666667, R
551136, 1530.9333333333334, R
551370, 1531.5833333333333, R
551603, 1532.2305555555556, R
551855, 1532.9305555555557, R
552124, 1533.6777777777777, R
552381, 1534.3916666666667, R
552630, 1535.0833333333333, R
552876, 1535.7666666666667, R
553112, 1536.4222222222222, R
553337, 1537.0472222222222, R
553565, 1537.6805555555557, R
553807, 1538.3527777777779, R
554049, 1539.025, R
554297, 1539.713888888889, R
554552, 1540.4222222222222, R
554818, 1541.161111111111, R
555069, 1541.8583333333333, R
555310, 1542.5277777777778, R
555546, 1543.1833333333334, R
555791, 1543.8638888888888, R
556038, 1544.55, R
556287, 1545.2416666666666, R
556548, 1545.9666666666667, R
556800, 1546.6666666666667, R
557044, 1547.3444444444444, R
557292, 1548.0333333333333, R
557530, 1548.6944444444443, R
557767, 1549.3527777777779, R
558004, 1550.0111111111112, R
558247, 1550.6861111111111, R
558495, 1551.375, R
558745, 1552.0694444444443, R
559000, 1552.7777777777778, R
559252, 1553.4777777777779, R
559495, 1554.1527777777778, R
559736, 1554.8222222222223, R
559978, 1555.4944444444445, R
560211, 1556.1416666666667, R
560449, 1556.8027777777777, R
560705, 1557.513888888889, R
560959, 1558.2194444444444, R
561202, 1558.8944444444444, R
561440, 1559.5555555555557, R
561671, 1560.1972222222223, R
561893, 1560.8138888888889, R
562109, 1561.4138888888888, R
562333, 1562.036111111111, R
562568, 1562.6888888888889, R
562807, 1563.3527777777779, R
563058, 1564.05, R
563308, 1564.7444444444445, R
563562, 1565.45, R
563811, 1566.1416666666667, R
564057, 1566.825, R
564288, 1567.4666666666667, R
564526, 1568.1277777777777, R
564773, 1568.8138888888889, R
565020, 1569.5, R
565272, 1570.2, R
565530, 1570.9166666666667, R
565781, 1571.6138888888888, R
566018, 1572.2722222222221, R
566253, 1572.925, R
566502, 1573.6166666666666, R
566751, 1574.3083333333334, R
566997, 1574.9916666666666, R
567249, 1575.6916666666666, R
567514, 1576.4277777777777, R
567768, 1577.1333333333334, R
568025, 1577.8472222222222, R
568279, 1578.5527777777777, R
568528, 1579.2444444444445, R
568764, 1579.9, R
569004, 1580.5666666666666, R
569260, 1581.2777777777778, R
569521, 1582.0027777777777, R
569776, 1582.7111111111112, R
570029, 1583.4138888888888, R
570272, 1584.088888888889, R
570507, 1584.7416666666666, R
570741, 1585.3916666666667, R
570984, 1586.0666666666666, R
571245, 1586.7916666666667, R
571517, 1587.5472222222222, N
571773, 1588.2583333333334, N
572032, 1588.9777777777779, N
572301, 1589.725, N
572400, 1590.0, ~
572546, 1590.4055555555556, N
572780, 1591.0555555555557, N
572840, 1591.2222222222222, ~
573015, 1591.7083333333333, N
573256, 1592.3777777777777, N
573510, 1593.0833333333333, N
573769, 1593.8027777777777, N
574020, 1594.5, N
574269, 1595.1916666666666, N
574520, 1595.888888888889, N
574753, 1596.536111111111, N
574997, 1597.213888888889, N
575261, 1597.9472222222223, N
575533, 1598.7027777777778, N
575805, 1599.4583333333333, N
576060, 1600.1666666666667, N
576314, 1600.8722222222223, N
576562, 1601.5611111111111, N
576800, 1602.2222222222222, N
577026, 1602.85, N
577253, 1603.4805555555556, N
577483, 1604.1194444444445, N
577732, 1604.8111111111111, N
578012, 1605.588888888889, N
578295, 1606.375, N
578363, 1606.5638888888889, ~
578568, 1607.1333333333334, N
578817, 1607.825, N
579064, 1608.5111111111112, N
579320, 1609.2222222222222, N
579602, 1610.0055555555555, N
579872, 1610.7555555555555, N
580132, 1611.4777777777779, N
580384, 1612.1777777777777, N
580631, 1612.8638888888888, N
580881, 1613.5583333333334, N
581114, 1614.2055555555555, N
581268, 1614.6333333333334, ~
581342, 1614.838888888889, N
581576, 1615.4888888888888, N
581827, 1616.1861111111111, N
582079, 1616.8861111111112, N
582336, 1617.6, N
582613, 1618.3694444444445, N
582882, 1619.1166666666666, N
583138, 1619.8277777777778, N
583396, 1620.5444444444445, N
583659, 1621.275, N
583906, 1621.9611111111112, N
584149, 1622.6361111111112, N
584404, 1623.3444444444444, N
584671, 1624.0861111111112, N
584930, 1624.8055555555557, N
585179, 1625.4972222222223, N
585421, 1626.1694444444445, N
585657, 1626.825, N
585893, 1627.4805555555556, N
586122, 1628.1166666666666, N
586361, 1628.7805555555556, N
586612, 1629.4777777777779, N
586872, 1630.2, N
587119, 1630.8861111111112, N
587373, 1631.5916666666667, N
587620, 1632.2777777777778, N
587867, 1632.963888888889, N
588105, 1633.625, N
588349, 1634.3027777777777, N
588597, 1634.9916666666666, N
588845, 1635.6805555555557, N
589091, 1636.3638888888888, N
589343, 1637.0638888888889, N
589585, 1637.736111111111, N
589818, 1638.3833333333334, N
590043, 1639.0083333333334, N
590275, 1639.6527777777778, N
590521, 1640.3361111111112, N
590768, 1641.0222222222221, N
591020, 1641.7222222222222, N
591281, 1642.4472222222223, N
591537, 1643.1583333333333, N
591768, 1643.8, N
591997, 1644.4361111111111, N
592234, 1645.0944444444444, N
592462, 1645.7277777777779, N
592691, 1646.3638888888888, N
592921, 1647.0027777777777, N
593167, 1647.6861111111111, N
593440, 1648.4444444444443, N
593714, 1649.2055555555555, N
594008, 1650.0222222222221, N
594274, 1650.7611111111112, N
594520, 1651.4444444444443, N
594768, 1652.1333333333334, N
595026, 1652.85, N
595275, 1653.5416666666667, N
595521, 1654.225, N
595762, 1654.8944444444444, N
595996, 1655.5444444444445, N
596223, 1656.175, N
596447, 1656.7972222222222, N
596677, 1657.4361111111111, N
596917, 1658.1027777777779, N
597171, 1658.8083333333334, N
597440, 1659.5555555555557, N
597699, 1660.275, N
597972, 1661.0333333333333, N
598241, 1661.7805555555556, N
598503, 1662.5083333333334, N
598738, 1663.161111111111, N
598983, 1663.8416666666667, N
599229, 1664.525, N
599481, 1665.225, N
599734, 1665.9277777777777, N
599992, 1666.6444444444444, N
600249, 1667.3583333333333, N
600504, 1668.0666666666666, N
600741, 1668.725, N
600988, 1669.411111111111, N
601234, 1670.0944444444444, N
601482, 1670.7833333333333, N
601729, 1671.4694444444444, N
601988, 1672.1888888888889, N
602245, 1672.9027777777778, N
602498, 1673.6055555555556, N
602739, 1674.275, N
602972, 1674.9222222222222, N
603210, 1675.5833333333333, N
603448, 1676.2444444444445, N
603690, 1676.9166666666667, N
603946, 1677.6277777777777, N
604206, 1678.35, N
604457, 1679.0472222222222, N
604701, 1679.725, N
604945, 1680.4027777777778, N
605183, 1681.0638888888889, N
605417, 1681.713888888889, N
605652, 1682.3666666666666, N
605895, 1683.0416666666667, N
606148, 1683.7444444444445, N
606395, 1684.4305555555557, N
606649, 1685.1361111111112, N
606903, 1685.8416666666667, N
607150, 1686.5277777777778, N
607379, 1687.1638888888888, N
607613, 1687.8138888888889, N
607859, 1688.4972222222223, N
608105, 1689.1805555555557, N
608357, 1689.8805555555555, N
608613, 1690.5916666666667, N
608862, 1691.2833333333333, N
609113, 1691.9805555555556, N
609353, 1692.6472222222221, N
609592, 1693.3111111111111, N
609835, 1693.986111111111, N
610090, 1694.6944444444443, N
610334, 1695.3722222222223, N
610598, 1696.1055555555556, N
610868, 1696.8555555555556, N
611132, 1697.588888888889, N
611373, 1698.2583333333334, N
611609, 1698.9138888888888, N
611849, 1699.5805555555555, N
612080, 1700.2222222222222, N
612321, 1700.8916666666667, N
612584, 1701.6222222222223, N
612849, 1702.3583333333333, N
613097, 1703.0472222222222, N
613345, 1703.736111111111, N
613596, 1704.4333333333334, N
613831, 1705.0861111111112, N
614066, 1705.7388888888888, N
614308, 1706.411111111111, N
614551, 1707.0861111111112, N
614791, 1707.7527777777777, N
615036, 1708.4333333333334, N
615298, 1709.161111111111, N
615548, 1709.8555555555556, N
615783, 1710.5083333333334, N
616012, 1711.1444444444444, N
616245, 1711.7916666666667, N
616483, 1712.4527777777778, N
616723, 1713.1194444444445, N
616974, 1713.8166666666666, N
617235, 1714.5416666666667, N
617492, 1715.2555555555555, N
617730, 1715.9166666666667, N
617962, 1716.5611111111111, N
618197, 1717.213888888889, N
618431, 1717.8638888888888, N
618667, 1718.5194444444444, N
618907, 1719.1861111111111, N
619156, 1719.8777777777777, N
619407, 1720.575, N
619655, 1721.263888888889, N
619898, 1721.9388888888889, N
620136, 1722.6, N
620379, 1723.275, N
620621, 1723.9472222222223, N
620873, 1724.6472222222221, N
621122, 1725.338888888889, N
621371, 1726.0305555555556, N
621622, 1726.7277777777779, N
621883, 1727.4527777777778, N
622123, 1728.1194444444445, N
622351, 1728.7527777777777, N
622581, 1729.3916666666667, N
622821, 1730.0583333333334, N
623048, 1730.6888888888889, N
623272, 1731.3111111111111, R
623500, 1731.9444444444443, R
623737, 1732.6027777777779, R
623976, 1733.2666666666667, R
624224, 1733.9555555555555, R
624472, 1734.6444444444444, R
624708, 1735.3, R
624932, 1735.9222222222222, R
625153, 1736.536111111111, R
625389, 1737.1916666666666, R
625633, 1737.8694444444445, R
625864, 1738.5111111111112, R
626096, 1739.1555555555556, R
626330, 1739.8055555555557, R
626573, 1740.4805555555556, R
626805, 1741.125, R
627030, 1741.75, R
627260, 1742.388888888889, R
627506, 1743.0722222222223, R
627759, 1743.775, R
627997, 1744.4361111111111, R
628240, 1745.111111111111, R
628482, 1745.7833333333333, R
628707, 1746.4083333333333, R
628927, 1747.0194444444444, R
629147, 1747.6305555555555, R
629376, 1748.2666666666667, R
629612, 1748.9222222222222, R
629852, 1749.588888888889, R
630100, 1750.2777777777778, R
630358, 1750.9944444444445, R
630613, 1751.7027777777778, R
630840, 1752.3333333333333, R
631067, 1752.963888888889, R
631298, 1753.6055555555556, R
631520, 1754.2222222222222, R
631736, 1754.8222222222223, R
631951, 1755.4194444444445, R
632177, 1756.0472222222222, R
632425, 1756.736111111111, R
632673, 1757.425, R
632912, 1758.088888888889, R
633148, 1758.7444444444445, R
633400, 1759.4444444444443, R
633645, 1760.125, R
633893, 1760.8138888888889, R
634154, 1761.5388888888888, R
634418, 1762.2722222222221, R
634675, 1762.986111111111, R
634918, 1763.661111111111, R
635162, 1764.338888888889, R
635408, 1765.0222222222221, R
635640, 1765.6666666666667, R
635869, 1766.3027777777777, R
636112, 1766.9777777777779, R
636373, 1767.7027777777778, R
636623, 1768.3972222222221, R
636882, 1769.1166666666666, R
637135, 1769.8194444444443, R
637366, 1770.4611111111112, R
637591, 1771.0861111111112, R
637813, 1771.7027777777778, R
638094, 1772.4833333333333, N
638393, 1773.3138888888889, N
638690, 1774.138888888889, N
638976, 1774.9333333333334, N
639245, 1775.6805555555557, N
639489, 1776.3583333333333, N
639721, 1777.0027777777777, N
639961, 1777.6694444444445, N
640204, 1778.3444444444444, N
640466, 1779.0722222222223, N
640733, 1779.8138888888889, N
641013, 1780.5916666666667, N
641299, 1781.3861111111112, N
641586, 1782.1833333333334, N
641842, 1782.8944444444444, N
642097, 1783.6027777777779, N
642359, 1784.3305555555555, N
642615, 1785.0416666666667, N
642880, 1785.7777777777778, N
643152, 1786.5333333333333, N
643422, 1787.2833333333333, N
643671, 1787.975, N
643929, 1788.6916666666666, N
644183, 1789.3972222222221, N
644433, 1790.0916666666667, N
644665, 1790.736111111111, N
644917, 1791.4361111111111, N
645182, 1792.1722222222222, N
645438, 1792.8833333333334, N
645708, 1793.6333333333334, N
645977, 1794.3805555555555, N
646224, 1795.0666666666666, N
646452, 1795.7, N
646694, 1796.3722222222223, N
646945, 1797.0694444444443, N
647200, 1797.7777777777778, N
647448, 1798.4666666666667, N
647684, 1799.1222222222223, N
647912, 1799.7555555555555, N
648139, 1800.3861111111112, N
648368, 1801.0222222222221, N
648602, 1801.6722222222222, N
648863, 1802.3972222222221, N
649141, 1803.1694444444445, N
649414, 1803.9277777777777, N
649673, 1804.6472222222221, N
649945, 1805.4027777777778, N
