18, 0.05, +
95, 0.2638888888888889, N
253, 0.7027777777777777, N
478, 1.3277777777777777, N
673, 1.8694444444444445, N
873, 2.425, N
1076, 2.988888888888889, N
1272, 3.533333333333333, N
1466, 4.072222222222222, N
1655, 4.597222222222222, N
1849, 5.136111111111111, N
2047, 5.686111111111111, N
2236, 6.211111111111111, N
2433, 6.758333333333334, N
2632, 7.311111111111111, N
2832, 7.866666666666666, N
3021, 8.391666666666667, N
3219, 8.941666666666666, N
3408, 9.466666666666667, N
3603, 10.008333333333333, N
3806, 10.572222222222223, N
4007, 11.130555555555556, N
4200, 11.666666666666666, N
4401, 12.225, N
4592, 12.755555555555556, N
4785, 13.291666666666666, N
4976, 13.822222222222223, N
5172, 14.366666666666667, N
5374, 14.927777777777777, N
5571, 15.475, N
5771, 16.030555555555555, N
5963, 16.56388888888889, N
6156, 17.1, N
6347, 17.630555555555556, N
6543, 18.175, N
6742, 18.727777777777778, N
6941, 19.280555555555555, N
7134, 19.816666666666666, N
7333, 20.369444444444444, N
7522, 20.894444444444446, N
7715, 21.430555555555557, N
7914, 21.983333333333334, N
8107, 22.519444444444446, N
8302, 23.06111111111111, N
8497, 23.602777777777778, N
8699, 24.163888888888888, N
8898, 24.716666666666665, N
9095, 25.26388888888889, N
9284, 25.788888888888888, N
9481, 26.336111111111112, N
9681, 26.891666666666666, N
9882, 27.45, N
10074, 27.983333333333334, N
10273, 28.53611111111111, N
10462, 29.06111111111111, N
10656, 29.6, N
10850, 30.13888888888889, N
11042, 30.67222222222222, N
11236, 31.211111111111112, N
11433, 31.758333333333333, N
11636, 32.32222222222222, N
11827, 32.852777777777774, N
12021, 33.391666666666666, N
12214, 33.92777777777778, N
12409, 34.46944444444444, N
12606, 35.016666666666666, N
12808, 35.577777777777776, N
13005, 36.125, N
13203, 36.675, N
13391, 37.19722222222222, N
13585, 37.736111111111114, N
13781, 38.28055555555556, N
13978, 38.827777777777776, N
14173, 39.36944444444445, N
14369, 39.91388888888889, N
14568, 40.46666666666667, N
14763, 41.00833333333333, N
14957, 41.547222222222224, N
15146, 42.07222222222222, N
15339, 42.608333333333334, N
15536, 43.15555555555556, N
15736, 43.71111111111111, N
15929, 44.24722222222222, N
16127, 44.797222222222224, N
16320, 45.333333333333336, N
16512, 45.86666666666667, N
16706, 46.40555555555556, N
16905, 46.958333333333336, N
17095, 47.486111111111114, N
17296, 48.044444444444444, N
17499, 48.608333333333334, N
17695, 49.15277777777778, N
17886, 49.68333333333333, N
18080, 50.22222222222222, N
18272, 50.75555555555555, N
18471, 51.30833333333333, N
18671, 51.86388888888889, N
18866, 52.40555555555556, N
19061, 52.94722222222222, N
19253, 53.480555555555554, N
19446, 54.016666666666666, N
19636, 54.544444444444444, N
19834, 55.09444444444444, N
20026, 55.62777777777778, N
20222, 56.172222222222224, N
20418, 56.71666666666667, N
20615, 57.263888888888886, N
20809, 57.80277777777778, N
21004, 58.34444444444444, N
21192, 58.86666666666667, N
21387, 59.40833333333333, N
21591, 59.975, N
21791, 60.53055555555556, F
21990, 61.083333333333336, N
22184, 61.62222222222222, N
22374, 62.15, N
22571, 62.69722222222222, N
22728, 63.13333333333333, A
22953, 63.75833333333333, N
23154, 64.31666666666666, N
23350, 64.86111111111111, N
23554, 65.42777777777778, N
23744, 65.95555555555555, N
23936, 66.4888888888889, N
24127, 67.01944444444445, N
24328, 67.57777777777778, N
24526, 68.12777777777778, N
24725, 68.68055555555556, N
24920, 69.22222222222223, N
25116, 69.76666666666667, N
25305, 70.29166666666667, N
25498, 70.82777777777778, N
25696, 71.37777777777778, N
25894, 71.92777777777778, N
26092, 72.47777777777777, N
26288, 73.02222222222223, N
26486, 73.57222222222222, N
26680, 74.11111111111111, N
26881, 74.66944444444445, N
27069, 75.19166666666666, N
27262, 75.72777777777777, N
27461, 76.28055555555555, N
27662, 76.83888888888889, N
27855, 77.375, N
28050, 77.91666666666667, N
28241, 78.44722222222222, N
28435, 78.98611111111111, N
28629, 79.525, N
28825, 80.06944444444444, N
29020, 80.61111111111111, N
29216, 81.15555555555555, N
29417, 81.71388888888889, N
29617, 82.26944444444445, N
29813, 82.81388888888888, N
30006, 83.35, N
30206, 83.90555555555555, N
30406, 84.46111111111111, N
30610, 85.02777777777777, N
30801, 85.55833333333334, N
31003, 86.11944444444444, N
31194, 86.65, N
31389, 87.19166666666666, N
31586, 87.7388888888889, N
31782, 88.28333333333333, N
31977, 88.825, N
32177, 89.38055555555556, N
32378, 89.93888888888888, N
32569, 90.46944444444445, N
32764, 91.0111111111111, N
32960, 91.55555555555556, N
33153, 92.09166666666667, N
33348, 92.63333333333334, N
33549, 93.19166666666666, N
33748, 93.74444444444444, N
33945, 94.29166666666667, N
34135, 94.81944444444444, N
34334, 95.37222222222222, N
34530, 95.91666666666667, N
34727, 96.46388888888889, N
34927, 97.01944444444445, N
35123, 97.56388888888888, N
35323, 98.11944444444444, N
35522, 98.67222222222222, N
35720, 99.22222222222223, N
35912, 99.75555555555556, N
36105, 100.29166666666667, N
36304, 100.84444444444445, N
36506, 101.40555555555555, N
36697, 101.93611111111112, N
36899, 102.49722222222222, N
37087, 103.01944444444445, N
37283, 103.56388888888888, N
37477, 104.10277777777777, N
37676, 104.65555555555555, N
37871, 105.19722222222222, N
38069, 105.74722222222222, N
38267, 106.29722222222222, N
38466, 106.85, N
38661, 107.39166666666667, N
38856, 107.93333333333334, N
39049, 108.46944444444445, N
39249, 109.025, N
39447, 109.575, N
39643, 110.11944444444444, N
39843, 110.675, F
40036, 111.21111111111111, N
40230, 111.75, N
40421, 112.28055555555555, N
40621, 112.83611111111111, N
40811, 113.3638888888889, N
41006, 113.90555555555555, N
41206, 114.46111111111111, N
41402, 115.00555555555556, N
41595, 115.54166666666667, N
41790, 116.08333333333333, N
41981, 116.6138888888889, N
42178, 117.16111111111111, N
42380, 117.72222222222223, N
42582, 118.28333333333333, F
42777, 118.825, N
42969, 119.35833333333333, F
43165, 119.90277777777777, N
43362, 120.45, F
43560, 121.0, N
43751, 121.53055555555555, V
43953, 122.09166666666667, N
44159, 122.66388888888889, F
44355, 123.20833333333333, N
44550, 123.75, F
44747, 124.29722222222222, N
44939, 124.83055555555555, F
45135, 125.375, N
45333, 125.925, N
45530, 126.47222222222223, N
45729, 127.025, F
45921, 127.55833333333334, N
46122, 128.11666666666667, F
46306, 128.62777777777777, N
46507, 129.1861111111111, F
46701, 129.725, N
46904, 130.2888888888889, F
47101, 130.8361111111111, N
47296, 131.37777777777777, F
47489, 131.9138888888889, N
47683, 132.45277777777778, F
47876, 132.98888888888888, N
48073, 133.5361111111111, F
48270, 134.08333333333334, N
48469, 134.63611111111112, F
48666, 135.18333333333334, N
48861, 135.725, F
49052, 136.25555555555556, N
49243, 136.7861111111111, F
49444, 137.34444444444443, N
49631, 137.86388888888888, F
49831, 138.41944444444445, N
49998, 138.88333333333333, V
50232, 139.53333333333333, N
50423, 140.0638888888889, F
50618, 140.60555555555555, N
50815, 141.15277777777777, F
51010, 141.69444444444446, N
51210, 142.25, F
51409, 142.80277777777778, N
51604, 143.34444444444443, N
51800, 143.88888888888889, N
51994, 144.42777777777778, N
52189, 144.96944444444443, N
52384, 145.51111111111112, N
52574, 146.0388888888889, N
52776, 146.6, N
52973, 147.1472222222222, N
53173, 147.70277777777778, F
53362, 148.2277777777778, N
53560, 148.77777777777777, F
53750, 149.30555555555554, N
53845, 149.56944444444446, +
53940, 149.83333333333334, V
54141, 150.39166666666668, N
54341, 150.94722222222222, V
54535, 151.48611111111111, N
54720, 152.0, V
54821, 152.28055555555557, +
54923, 152.5638888888889, N
55114, 153.09444444444443, F
55310, 153.63888888888889, N
55505, 154.18055555555554, N
55701, 154.725, N
55894, 155.26111111111112, F
56098, 155.82777777777778, N
56290, 156.36111111111111, F
56484, 156.9, N
56676, 157.43333333333334, F
56870, 157.97222222222223, N
57069, 158.525, F
57268, 159.07777777777778, N
57445, 159.56944444444446, V
57659, 160.1638888888889, N
57848, 160.6888888888889, F
58040, 161.22222222222223, N
58238, 161.7722222222222, F
58426, 162.29444444444445, N
58625, 162.84722222222223, F
58822, 163.39444444444445, N
59024, 163.95555555555555, F
59212, 164.4777777777778, N
59408, 165.0222222222222, F
59602, 165.5611111111111, N
59796, 166.1, F
59995, 166.65277777777777, N
60165, 167.125, V
60396, 167.76666666666668, N
60594, 168.31666666666666, V
60784, 168.84444444444443, N
60982, 169.39444444444445, F
61176, 169.93333333333334, N
61371, 170.475, F
61569, 171.025, N
61767, 171.575, N
61966, 172.12777777777777, N
62158, 172.6611111111111, N
62355, 173.20833333333334, N
62548, 173.74444444444444, N
62742, 174.28333333333333, N
62939, 174.83055555555555, F
63142, 175.39444444444445, N
63318, 175.88333333333333, V
63537, 176.49166666666667, N
63727, 177.01944444444445, N
63921, 177.55833333333334, N
64118, 178.10555555555555, F
64310, 178.63888888888889, N
64503, 179.175, F
64706, 179.73888888888888, N
64906, 180.29444444444445, F
65101, 180.8361111111111, N
65296, 181.37777777777777, F
65487, 181.90833333333333, N
65685, 182.45833333333334, F
65884, 183.01111111111112, N
66084, 183.56666666666666, F
66279, 184.10833333333332, N
66479, 184.6638888888889, N
66666, 185.18333333333334, N
66860, 185.72222222222223, N
67050, 186.25, N
67243, 186.7861111111111, F
67438, 187.32777777777778, N
67635, 187.875, V
67833, 188.425, N
68030, 188.97222222222223, V
68230, 189.52777777777777, N
68422, 190.0611111111111, F
68614, 190.59444444444443, N
68815, 191.15277777777777, F
69020, 191.72222222222223, N
69215, 192.26388888888889, F
69411, 192.80833333333334, N
69603, 193.34166666666667, F
69804, 193.9, N
69999, 194.44166666666666, N
70194, 194.98333333333332, N
70388, 195.5222222222222, N
70590, 196.08333333333334, N
70787, 196.63055555555556, F
70985, 197.18055555555554, N
71178, 197.71666666666667, V
71371, 198.25277777777777, N
71534, 198.70555555555555, V
71764, 199.34444444444443, N
71965, 199.90277777777777, F
72160, 200.44444444444446, N
72362, 201.00555555555556, F
72555, 201.54166666666666, N
72748, 202.07777777777778, F
72942, 202.61666666666667, N
73141, 203.16944444444445, F
73335, 203.70833333333334, N
73536, 204.26666666666668, F
73737, 204.825, N
73938, 205.38333333333333, F
74131, 205.91944444444445, N
74330, 206.47222222222223, F
74526, 207.01666666666668, N
74721, 207.55833333333334, F
74923, 208.11944444444444, N
75122, 208.67222222222222, F
75322, 209.2277777777778, N
75512, 209.75555555555556, F
75703, 210.2861111111111, N
75896, 210.82222222222222, V
76100, 211.38888888888889, N
76291, 211.91944444444445, F
76488, 212.46666666666667, N
76687, 213.01944444444445, N
76884, 213.56666666666666, N
77075, 214.09722222222223, N
77274, 214.65, N
77464, 215.17777777777778, F
77661, 215.725, N
77867, 216.29722222222222, V
78064, 216.84444444444443, N
78258, 217.38333333333333, F
78456, 217.93333333333334, N
78654, 218.48333333333332, F
78845, 219.01388888888889, N
79043, 219.5638888888889, F
79238, 220.10555555555555, N
79436, 220.65555555555557, F
79632, 221.2, N
79830, 221.75, F
80023, 222.2861111111111, N
80218, 222.82777777777778, F
80410, 223.36111111111111, N
80606, 223.90555555555557, F
80802, 224.45, N
81004, 225.01111111111112, F
81189, 225.525, F
81394, 226.09444444444443, N
81585, 226.625, N
81781, 227.16944444444445, N
81981, 227.725, N
82179, 228.275, F
82382, 228.8388888888889, N
82579, 229.38611111111112, F
82779, 229.94166666666666, N
82976, 230.48888888888888, F
83170, 231.02777777777777, N
83359, 231.55277777777778, F
83559, 232.10833333333332, N
83758, 232.6611111111111, F
83957, 233.2138888888889, N
84153, 233.75833333333333, F
84350, 234.30555555555554, N
84539, 234.83055555555555, F
84734, 235.37222222222223, N
84933, 235.925, F
85123, 236.45277777777778, N
85324, 237.01111111111112, F
85524, 237.56666666666666, N
85722, 238.11666666666667, N
85914, 238.65, N
86113, 239.20277777777778, N
86306, 239.73888888888888, N
86503, 240.2861111111111, N
86707, 240.8527777777778, N
86907, 241.40833333333333, F
87101, 241.94722222222222, N
87301, 242.50277777777777, V
87442, 242.89444444444445, N
87675, 243.54166666666666, F
87884, 244.12222222222223, N
88078, 244.6611111111111, N
88275, 245.20833333333334, N
88468, 245.74444444444444, N
88668, 246.3, N
88859, 246.83055555555555, N
89051, 247.36388888888888, N
89240, 247.88888888888889, F
89437, 248.4361111111111, N
89637, 248.99166666666667, F
89838, 249.55, N
90032, 250.0888888888889, V
90231, 250.64166666666668, N
90423, 251.175, N
90620, 251.72222222222223, N
90822, 252.28333333333333, N
91010, 252.80555555555554, N
91210, 253.36111111111111, N
91410, 253.91666666666666, N
91615, 254.48611111111111, N
91806, 255.01666666666668, N
92003, 255.5638888888889, F
92201, 256.1138888888889, N
92397, 256.65833333333336, F
92591, 257.1972222222222, N
92788, 257.74444444444447, F
92983, 258.2861111111111, N
93152, 258.75555555555553, V
93381, 259.39166666666665, N
93571, 259.9194444444444, N
93768, 260.46666666666664, N
93964, 261.0111111111111, N
94167, 261.575, N
94362, 262.1166666666667, N
94561, 262.6694444444444, N
94753, 263.2027777777778, N
94952, 263.75555555555553, N
95145, 264.2916666666667, N
95340, 264.8333333333333, N
95537, 265.38055555555553, N
95734, 265.9277777777778, N
95831, 266.1972222222222, +
95929, 266.46944444444443, V
96127, 267.01944444444445, N
96314, 267.5388888888889, V
96508, 268.0777777777778, N
96688, 268.5777777777778, V
96794, 268.8722222222222, +
96900, 269.1666666666667, N
97094, 269.7055555555556, F
97286, 270.2388888888889, N
97491, 270.80833333333334, N
97681, 271.3361111111111, N
97874, 271.8722222222222, F
98068, 272.4111111111111, N
98264, 272.9555555555556, N
98463, 273.5083333333333, N
98663, 274.06388888888887, N
98858, 274.60555555555555, N
99059, 275.1638888888889, N
99250, 275.69444444444446, N
99445, 276.2361111111111, F
99646, 276.7944444444444, N
99823, 277.2861111111111, V
100036, 277.8777777777778, N
100236, 278.43333333333334, N
100436, 278.9888888888889, N
100637, 279.5472222222222, N
100833, 280.09166666666664, N
101024, 280.6222222222222, N
101218, 281.1611111111111, N
101418, 281.71666666666664, N
101618, 282.27222222222224, N
101811, 282.80833333333334, F
102009, 283.35833333333335, N
102185, 283.84722222222223, V
102398, 284.43888888888887, N
102596, 284.9888888888889, N
102791, 285.53055555555557, N
102993, 286.09166666666664, N
103189, 286.6361111111111, N
103392, 287.2, N
103587, 287.7416666666667, N
103789, 288.3027777777778, N
103977, 288.825, N
104173, 289.36944444444447, N
104373, 289.925, N
104583, 290.5083333333333, N
104776, 291.0444444444444, N
104974, 291.59444444444443, N
105166, 292.1277777777778, N
105365, 292.68055555555554, N
105558, 293.21666666666664, N
105750, 293.75, F
105950, 294.30555555555554, N
106131, 294.80833333333334, V
106350, 295.4166666666667, N
106527, 295.90833333333336, V
106741, 296.5027777777778, N
106940, 297.05555555555554, F
107133, 297.59166666666664, N
107329, 298.1361111111111, N
107533, 298.7027777777778, N
107730, 299.25, N
107929, 299.8027777777778, N
108119, 300.3305555555556, F
108317, 300.88055555555553, N
108512, 301.4222222222222, V
108707, 301.9638888888889, N
108908, 302.52222222222224, V
109103, 303.06388888888887, N
109303, 303.61944444444447, N
109499, 304.1638888888889, N
109696, 304.7111111111111, N
109885, 305.2361111111111, N
110076, 305.76666666666665, N
110278, 306.3277777777778, N
110480, 306.8888888888889, N
110672, 307.4222222222222, N
110873, 307.98055555555555, N
111062, 308.50555555555553, N
111258, 309.05, N
111451, 309.5861111111111, N
111630, 310.0833333333333, V
111846, 310.68333333333334, N
112028, 311.18888888888887, V
112251, 311.80833333333334, N
112449, 312.35833333333335, N
112646, 312.90555555555557, N
112845, 313.4583333333333, N
113037, 313.9916666666667, N
113234, 314.5388888888889, N
113437, 315.10277777777776, N
113631, 315.64166666666665, N
113827, 316.18611111111113, N
114019, 316.71944444444443, N
114211, 317.2527777777778, N
114401, 317.78055555555557, N
114596, 318.3222222222222, N
114696, 318.6, +
114796, 318.8777777777778, V
114993, 319.425, N
115191, 319.975, V
115390, 320.52777777777777, N
115590, 321.0833333333333, V
115686, 321.35, +
115782, 321.6166666666667, N
115973, 322.14722222222224, N
116175, 322.7083333333333, N
116377, 323.26944444444445, N
116575, 323.81944444444446, N
116774, 324.3722222222222, N
116967, 324.90833333333336, N
117159, 325.44166666666666, F
117352, 325.97777777777776, N
117520, 326.44444444444446, V
117746, 327.0722222222222, N
117945, 327.625, V
118148, 328.18888888888887, N
118344, 328.73333333333335, N
118536, 329.26666666666665, N
118730, 329.80555555555554, N
118924, 330.34444444444443, N
119120, 330.8888888888889, N
119320, 331.44444444444446, N
119515, 331.9861111111111, N
119717, 332.5472222222222, N
119908, 333.0777777777778, N
120102, 333.6166666666667, N
120295, 334.15277777777777, F
120498, 334.71666666666664, N
120663, 335.175, V
120897, 335.825, N
121097, 336.38055555555553, N
121299, 336.94166666666666, N
121493, 337.48055555555555, N
121687, 338.01944444444445, N
121883, 338.56388888888887, N
122083, 339.11944444444447, N
122282, 339.6722222222222, N
122480, 340.22222222222223, N
122682, 340.78333333333336, N
122872, 341.31111111111113, N
123066, 341.85, N
123216, 342.26666666666665, A
123455, 342.93055555555554, N
123649, 343.46944444444443, N
123849, 344.025, N
124053, 344.59166666666664, N
124250, 345.1388888888889, N
124444, 345.6777777777778, N
124641, 346.225, N
124834, 346.7611111111111, N
124998, 347.21666666666664, A
125237, 347.88055555555553, N
125439, 348.44166666666666, N
125635, 348.9861111111111, N
125829, 349.525, N
126024, 350.06666666666666, N
126223, 350.61944444444447, N
126420, 351.1666666666667, N
126615, 351.7083333333333, N
126817, 352.26944444444445, N
127019, 352.8305555555556, N
127213, 353.36944444444447, N
127405, 353.90277777777777, N
127603, 354.4527777777778, N
127794, 354.98333333333335, N
127991, 355.53055555555557, N
128197, 356.10277777777776, N
128396, 356.65555555555557, N
128593, 357.2027777777778, N
128784, 357.73333333333335, N
128981, 358.28055555555557, N
129181, 358.8361111111111, N
129378, 359.3833333333333, N
129520, 359.77777777777777, A
129764, 360.4555555555556, N
129971, 361.03055555555557, N
130166, 361.5722222222222, N
130361, 362.1138888888889, N
130557, 362.65833333333336, N
130748, 363.18888888888887, N
130948, 363.74444444444447, N
131153, 364.31388888888887, N
131350, 364.8611111111111, N
131544, 365.4, N
131734, 365.9277777777778, N
131932, 366.47777777777776, N
132123, 367.0083333333333, N
132321, 367.55833333333334, N
132518, 368.10555555555555, N
132715, 368.65277777777777, N
132916, 369.2111111111111, N
133114, 369.7611111111111, N
133307, 370.2972222222222, N
133503, 370.84166666666664, N
133697, 371.38055555555553, N
133902, 371.95, N
134101, 372.5027777777778, N
134296, 373.0444444444444, N
134453, 373.48055555555555, A
134688, 374.1333333333333, N
134888, 374.68888888888887, N
135082, 375.22777777777776, N
135282, 375.78333333333336, N
135475, 376.31944444444446, N
135625, 376.7361111111111, A
135868, 377.4111111111111, N
136065, 377.9583333333333, N
136260, 378.5, N
136453, 379.0361111111111, N
136648, 379.5777777777778, N
136851, 380.14166666666665, N
137050, 380.69444444444446, N
137246, 381.2388888888889, N
137443, 381.7861111111111, N
137636, 382.3222222222222, N
137831, 382.8638888888889, N
138023, 383.39722222222224, N
138224, 383.9555555555556, N
138418, 384.49444444444447, N
138616, 385.0444444444444, N
138821, 385.6138888888889, N
139016, 386.15555555555557, N
139210, 386.69444444444446, N
139403, 387.23055555555555, N
139599, 387.775, N
139804, 388.34444444444443, N
140004, 388.9, N
140198, 389.43888888888887, N
140400, 390.0, N
140591, 390.53055555555557, N
140786, 391.0722222222222, N
140981, 391.6138888888889, N
141181, 392.1694444444444, N
141374, 392.7055555555556, N
141574, 393.2611111111111, N
141776, 393.8222222222222, N
141970, 394.3611111111111, N
142168, 394.9111111111111, N
142368, 395.46666666666664, N
142561, 396.0027777777778, N
142759, 396.5527777777778, N
142923, 397.0083333333333, A
143162, 397.6722222222222, N
143362, 398.22777777777776, N
143557, 398.76944444444445, N
143752, 399.31111111111113, N
143949, 399.85833333333335, N
144146, 400.40555555555557, N
144343, 400.9527777777778, N
144539, 401.4972222222222, N
144737, 402.0472222222222, N
144936, 402.6, N
145133, 403.14722222222224, N
145322, 403.6722222222222, N
145516, 404.2111111111111, N
145714, 404.7611111111111, N
145923, 405.34166666666664, N
146116, 405.8777777777778, N
146314, 406.4277777777778, N
146502, 406.95, N
146710, 407.52777777777777, N
146903, 408.06388888888887, N
147100, 408.6111111111111, N
147299, 409.1638888888889, N
147501, 409.725, N
147697, 410.26944444444445, N
147892, 410.81111111111113, N
148087, 411.35277777777776, N
148288, 411.9111111111111, N
148479, 412.44166666666666, N
148676, 412.9888888888889, N
148880, 413.55555555555554, N
149076, 414.1, N
149280, 414.6666666666667, N
149467, 415.18611111111113, N
149659, 415.71944444444443, N
149856, 416.26666666666665, N
150053, 416.81388888888887, N
150246, 417.35, N
150442, 417.89444444444445, N
150645, 418.4583333333333, N
150839, 418.9972222222222, N
151035, 419.5416666666667, N
151232, 420.0888888888889, N
151429, 420.6361111111111, N
151627, 421.18611111111113, N
151830, 421.75, N
152030, 422.30555555555554, N
152227, 422.85277777777776, N
152417, 423.38055555555553, N
152615, 423.93055555555554, N
152813, 424.48055555555555, N
153007, 425.01944444444445, N
153199, 425.5527777777778, N
153399, 426.10833333333335, N
153599, 426.6638888888889, N
153793, 427.2027777777778, N
153987, 427.7416666666667, N
154187, 428.2972222222222, N
154379, 428.8305555555556, N
154575, 429.375, N
154779, 429.94166666666666, N
154980, 430.5, N
155175, 431.0416666666667, N
155369, 431.5805555555556, N
155569, 432.1361111111111, N
155761, 432.6694444444444, N
155958, 433.21666666666664, F
156155, 433.7638888888889, N
156357, 434.325, N
156556, 434.8777777777778, N
156753, 435.425, N
156951, 435.975, N
157147, 436.51944444444445, N
157334, 437.0388888888889, N
157530, 437.5833333333333, N
157732, 438.14444444444445, N
157933, 438.7027777777778, N
158126, 439.2388888888889, N
158289, 439.69166666666666, A
158511, 440.30833333333334, N
158710, 440.8611111111111, N
158907, 441.40833333333336, N
159096, 441.93333333333334, N
159294, 442.48333333333335, N
159494, 443.0388888888889, N
159674, 443.5388888888889, V
159891, 444.14166666666665, N
160086, 444.68333333333334, N
160282, 445.22777777777776, N
160479, 445.775, N
160678, 446.3277777777778, N
160877, 446.88055555555553, N
161075, 447.43055555555554, N
161268, 447.96666666666664, N
161459, 448.4972222222222, N
161653, 449.0361111111111, N
161850, 449.5833333333333, N
162039, 450.10833333333335, F
162239, 450.6638888888889, N
162438, 451.21666666666664, V
162636, 451.76666666666665, N
162827, 452.2972222222222, V
163026, 452.85, N
163222, 453.39444444444445, F
163414, 453.9277777777778, N
163614, 454.48333333333335, F
163818, 455.05, N
164017, 455.60277777777776, F
164212, 456.14444444444445, N
164405, 456.68055555555554, F
164607, 457.2416666666667, N
164805, 457.7916666666667, F
164996, 458.3222222222222, N
165201, 458.89166666666665, V
165397, 459.43611111111113, N
165595, 459.9861111111111, V
165796, 460.5444444444444, N
165991, 461.0861111111111, F
166180, 461.6111111111111, N
166376, 462.15555555555557, F
166586, 462.7388888888889, N
166782, 463.28333333333336, F
166981, 463.8361111111111, N
167075, 464.09722222222223, +
167169, 464.35833333333335, V
167372, 464.9222222222222, N
167547, 465.40833333333336, V
167763, 466.0083333333333, N
167961, 466.55833333333334, V
168060, 466.8333333333333, +
168160, 467.1111111111111, N
168359, 467.6638888888889, F
168563, 468.23055555555555, N
168759, 468.775, F
168951, 469.30833333333334, N
169143, 469.84166666666664, V
169338, 470.3833333333333, N
169547, 470.9638888888889, N
169749, 471.525, N
169946, 472.0722222222222, V
170139, 472.60833333333335, N
170336, 473.15555555555557, F
170527, 473.68611111111113, N
170619, 473.94166666666666, +
170712, 474.2, V
170924, 474.7888888888889, N
171123, 475.34166666666664, V
171322, 475.89444444444445, N
171520, 476.44444444444446, V
171620, 476.72222222222223, +
171721, 477.0027777777778, N
171915, 477.5416666666667, F
172103, 478.06388888888887, N
172306, 478.6277777777778, F
172515, 479.2083333333333, N
172715, 479.7638888888889, F
172912, 480.31111111111113, N
173108, 480.85555555555555, F
173305, 481.40277777777777, N
173400, 481.6666666666667, +
173495, 481.93055555555554, V
173700, 482.5, N
173896, 483.0444444444444, V
174095, 483.59722222222223, N
174268, 484.0777777777778, V
174382, 484.39444444444445, +
174497, 484.7138888888889, N
174691, 485.2527777777778, N
174883, 485.7861111111111, N
175079, 486.3305555555556, N
175284, 486.9, N
175484, 487.4555555555556, F
175683, 488.0083333333333, N
175883, 488.56388888888887, F
176074, 489.09444444444443, N
176272, 489.64444444444445, F
176464, 490.1777777777778, N
176557, 490.43611111111113, +
176651, 490.6972222222222, V
176863, 491.2861111111111, N
177029, 491.7472222222222, V
177268, 492.4111111111111, N
177450, 492.9166666666667, V
177558, 493.21666666666664, +
177666, 493.51666666666665, N
177860, 494.05555555555554, F
178052, 494.5888888888889, N
178253, 495.14722222222224, F
178458, 495.71666666666664, N
178656, 496.26666666666665, F
178849, 496.8027777777778, N
179040, 497.3333333333333, F
179235, 497.875, N
179432, 498.4222222222222, F
179625, 498.9583333333333, N
179820, 499.5, V
180019, 500.0527777777778, N
180193, 500.5361111111111, V
180416, 501.15555555555557, N
180612, 501.7, F
180808, 502.24444444444447, N
181004, 502.7888888888889, N
181204, 503.34444444444443, N
181407, 503.90833333333336, N
181602, 504.45, N
181807, 505.01944444444445, N
181997, 505.5472222222222, N
182189, 506.0805555555556, V
182386, 506.6277777777778, N
182568, 507.1333333333333, V
182784, 507.73333333333335, N
182982, 508.28333333333336, N
183182, 508.8388888888889, N
183374, 509.3722222222222, N
183569, 509.9138888888889, N
183760, 510.44444444444446, N
183958, 510.99444444444447, N
184153, 511.5361111111111, N
184356, 512.1, N
184536, 512.6, A
184750, 513.1944444444445, N
184918, 513.6611111111112, V
185139, 514.275, N
185336, 514.8222222222222, N
185530, 515.3611111111111, N
185725, 515.9027777777778, F
185926, 516.4611111111111, N
186131, 517.0305555555556, F
186326, 517.5722222222222, N
186519, 518.1083333333333, V
186716, 518.6555555555556, N
186909, 519.1916666666667, F
187108, 519.7444444444444, N
187316, 520.3222222222222, F
187506, 520.85, N
187704, 521.4, F
187894, 521.9277777777778, N
188090, 522.4722222222222, V
188282, 523.0055555555556, N
188475, 523.5416666666666, V
188676, 524.1, N
188874, 524.65, F
189072, 525.2, N
189265, 525.7361111111111, F
189460, 526.2777777777778, N
189660, 526.8333333333334, F
189852, 527.3666666666667, N
190050, 527.9166666666666, F
190258, 528.4944444444444, N
190456, 529.0444444444445, F
190663, 529.6194444444444, N
190852, 530.1444444444444, F
191047, 530.6861111111111, N
191244, 531.2333333333333, F
191442, 531.7833333333333, N
191636, 532.3222222222222, F
191828, 532.8555555555556, N
192029, 533.4138888888889, V
192228, 533.9666666666667, N
192422, 534.5055555555556, F
192612, 535.0333333333333, N
192807, 535.575, V
193010, 536.1388888888889, N
193212, 536.7, F
193403, 537.2305555555556, N
193600, 537.7777777777778, F
193794, 538.3166666666667, N
193991, 538.8638888888889, F
194184, 539.4, N
194384, 539.9555555555555, F
194578, 540.4944444444444, N
194777, 541.0472222222222, V
194983, 541.6194444444444, N
195180, 542.1666666666666, F
195377, 542.7138888888888, N
195573, 543.2583333333333, F
195772, 543.8111111111111, N
195972, 544.3666666666667, N
196171, 544.9194444444445, N
196367, 545.4638888888888, N
196566, 546.0166666666667, N
196761, 546.5583333333333, N
196955, 547.0972222222222, N
197148, 547.6333333333333, F
197350, 548.1944444444445, N
197542, 548.7277777777778, F
197740, 549.2777777777778, N
197911, 549.7527777777777, V
198143, 550.3972222222222, N
198341, 550.9472222222222, F
198534, 551.4833333333333, N
198732, 552.0333333333333, N
198930, 552.5833333333334, N
199134, 553.15, N
199302, 553.6166666666667, A
199532, 554.2555555555556, N
199724, 554.7888888888889, N
199920, 555.3333333333334, N
200118, 555.8833333333333, N
200313, 556.425, F
200504, 556.9555555555555, N
200689, 557.4694444444444, V
200908, 558.0777777777778, N
201102, 558.6166666666667, N
201294, 559.15, N
201492, 559.7, N
201688, 560.2444444444444, N
201883, 560.7861111111112, N
202085, 561.3472222222222, N
202282, 561.8944444444444, N
202483, 562.4527777777778, N
202675, 562.9861111111111, N
202869, 563.525, N
203070, 564.0833333333334, N
203272, 564.6444444444444, N
203466, 565.1833333333333, N
203665, 565.7361111111111, N
203836, 566.2111111111111, V
204064, 566.8444444444444, N
204238, 567.3277777777778, V
204457, 567.9361111111111, N
204658, 568.4944444444444, N
204857, 569.0472222222222, N
205058, 569.6055555555556, N
205251, 570.1416666666667, N
205455, 570.7083333333334, N
205644, 571.2333333333333, N
205838, 571.7722222222222, N
206003, 572.2305555555556, V
206233, 572.8694444444444, N
206426, 573.4055555555556, N
206625, 573.9583333333334, N
206829, 574.525, V
207028, 575.0777777777778, N
207223, 575.6194444444444, F
207416, 576.1555555555556, N
207616, 576.7111111111111, F
207814, 577.2611111111111, N
208016, 577.8222222222222, F
208214, 578.3722222222223, N
208418, 578.9388888888889, F
208605, 579.4583333333334, N
208801, 580.0027777777777, F
208997, 580.5472222222222, N
209195, 581.0972222222222, F
209389, 581.6361111111111, N
209586, 582.1833333333333, F
209789, 582.7472222222223, N
209984, 583.2888888888889, F
210178, 583.8277777777778, N
210371, 584.3638888888889, F
210568, 584.9111111111112, N
210767, 585.4638888888888, N
210969, 586.025, N
211168, 586.5777777777778, F
211371, 587.1416666666667, N
211562, 587.6722222222222, F
211758, 588.2166666666667, N
211954, 588.7611111111111, F
212153, 589.3138888888889, N
212354, 589.8722222222223, F
212526, 590.35, N
212753, 590.9805555555556, F
212950, 591.5277777777778, N
213151, 592.0861111111111, N
213340, 592.6111111111111, N
213534, 593.15, F
213736, 593.7111111111111, N
213941, 594.2805555555556, F
214132, 594.8111111111111, N
214328, 595.3555555555556, F
214520, 595.8888888888889, N
214722, 596.45, F
214917, 596.9916666666667, N
215110, 597.5277777777778, F
215310, 598.0833333333334, N
215515, 598.6527777777778, F
215718, 599.2166666666667, N
215911, 599.7527777777777, F
216110, 600.3055555555555, N
216309, 600.8583333333333, F
216506, 601.4055555555556, N
216704, 601.9555555555555, F
216904, 602.5111111111111, N
217104, 603.0666666666667, F
217307, 603.6305555555556, N
217501, 604.1694444444445, N
217690, 604.6944444444445, N
217887, 605.2416666666667, N
218082, 605.7833333333333, N
218286, 606.35, N
218484, 606.9, N
218686, 607.4611111111111, N
218879, 607.9972222222223, F
219084, 608.5666666666667, N
219273, 609.0916666666667, N
219372, 609.3666666666667, +
219471, 609.6416666666667, V
219677, 610.2138888888888, N
219878, 610.7722222222222, V
220071, 611.3083333333333, N
220256, 611.8222222222222, V
220363, 612.1194444444444, +
220471, 612.4194444444445, N
220665, 612.9583333333334, F
220869, 613.525, N
221057, 614.0472222222222, N
221259, 614.6083333333333, N
221461, 615.1694444444445, N
221658, 615.7166666666667, N
221850, 616.25, N
222049, 616.8027777777778, N
222239, 617.3305555555555, N
222436, 617.8777777777777, N
222638, 618.4388888888889, V
222839, 618.9972222222223, N
223033, 619.5361111111112, N
223231, 620.0861111111111, N
223429, 620.6361111111111, N
223620, 621.1666666666666, N
223818, 621.7166666666667, N
224011, 622.2527777777777, N
224219, 622.8305555555555, N
224414, 623.3722222222223, N
224615, 623.9305555555555, F
224810, 624.4722222222222, N
224902, 624.7277777777778, +
224994, 624.9833333333333, V
225208, 625.5777777777778, N
225384, 626.0666666666667, V
225608, 626.6888888888889, N
225777, 627.1583333333333, V
225896, 627.4888888888889, +
226015, 627.8194444444445, N
226208, 628.3555555555556, N
226400, 628.8888888888889, N
226594, 629.4277777777778, N
226800, 630.0, N
226987, 630.5194444444444, N
227186, 631.0722222222222, N
227385, 631.625, N
227592, 632.2, N
227782, 632.7277777777778, F
227976, 633.2666666666667, N
228154, 633.7611111111111, V
228374, 634.3722222222223, N
228581, 634.9472222222222, V
228780, 635.5, N
228981, 636.0583333333333, F
229136, 636.4888888888889, A
229372, 637.1444444444444, N
229566, 637.6833333333333, N
229769, 638.2472222222223, N
229965, 638.7916666666666, N
230165, 639.3472222222222, N
230365, 639.9027777777778, N
230568, 640.4666666666667, N
230761, 641.0027777777777, N
230956, 641.5444444444445, V
231152, 642.0888888888888, N
231337, 642.6027777777778, F
231558, 643.2166666666667, N
231757, 643.7694444444444, N
231908, 644.1888888888889, A
232143, 644.8416666666667, N
232343, 645.3972222222222, N
232536, 645.9333333333333, N
232742, 646.5055555555556, N
232938, 647.05, N
233136, 647.6, N
233339, 648.1638888888889, N
233542, 648.7277777777778, N
233709, 649.1916666666667, A
233930, 649.8055555555555, N
234130, 650.3611111111111, N
234331, 650.9194444444445, N
234534, 651.4833333333333, N
234732, 652.0333333333333, N
234933, 652.5916666666667, N
235123, 653.1194444444444, N
235321, 653.6694444444445, N
235515, 654.2083333333334, N
235718, 654.7722222222222, N
235912, 655.3111111111111, N
236110, 655.8611111111111, N
236315, 656.4305555555555, N
236515, 656.9861111111111, N
236712, 657.5333333333333, N
236906, 658.0722222222222, N
237108, 658.6333333333333, N
237309, 659.1916666666667, N
237510, 659.75, N
237708, 660.3, N
237908, 660.8555555555556, N
238103, 661.3972222222222, N
238307, 661.9638888888888, N
238505, 662.5138888888889, N
238703, 663.0638888888889, N
238899, 663.6083333333333, N
239107, 664.1861111111111, N
239309, 664.7472222222223, N
239505, 665.2916666666666, N
239702, 665.8388888888888, N
239899, 666.3861111111111, N
240095, 666.9305555555555, N
240294, 667.4833333333333, N
240499, 668.0527777777778, N
240698, 668.6055555555556, N
240895, 669.1527777777778, N
241086, 669.6833333333333, N
241283, 670.2305555555556, N
241486, 670.7944444444445, N
241683, 671.3416666666667, N
241881, 671.8916666666667, N
242082, 672.45, N
242289, 673.025, N
242485, 673.5694444444445, N
242682, 674.1166666666667, N
242876, 674.6555555555556, N
243079, 675.2194444444444, N
243280, 675.7777777777778, N
243482, 676.3388888888888, N
243678, 676.8833333333333, N
243881, 677.4472222222222, N
244071, 677.975, N
244266, 678.5166666666667, N
244469, 679.0805555555555, N
244664, 679.6222222222223, N
244864, 680.1777777777778, N
245064, 680.7333333333333, N
245270, 681.3055555555555, N
245463, 681.8416666666667, N
245660, 682.3888888888889, N
245857, 682.9361111111111, N
246055, 683.4861111111111, N
246256, 684.0444444444445, N
246462, 684.6166666666667, N
246662, 685.1722222222222, N
246860, 685.7222222222222, N
247052, 686.2555555555556, N
247252, 686.8111111111111, N
247452, 687.3666666666667, N
247645, 687.9027777777778, N
247850, 688.4722222222222, N
248047, 689.0194444444444, N
248249, 689.5805555555555, N
248442, 690.1166666666667, N
248643, 690.675, N
248834, 691.2055555555555, N
249031, 691.7527777777777, N
249239, 692.3305555555555, N
249440, 692.8888888888889, N
249637, 693.4361111111111, N
249837, 693.9916666666667, N
250033, 694.5361111111112, N
250226, 695.0722222222222, N
250426, 695.6277777777777, N
250622, 696.1722222222222, N
250832, 696.7555555555556, N
251030, 697.3055555555555, N
251229, 697.8583333333333, N
251427, 698.4083333333333, N
251630, 698.9722222222222, N
251822, 699.5055555555556, N
252020, 700.0555555555555, N
252228, 700.6333333333333, N
252430, 701.1944444444445, N
252626, 701.7388888888889, N
252818, 702.2722222222222, N
253017, 702.825, N
253210, 703.3611111111111, N
253410, 703.9166666666666, N
253606, 704.4611111111111, N
253805, 705.0138888888889, N
254003, 705.5638888888889, N
254203, 706.1194444444444, N
254401, 706.6694444444445, N
254595, 707.2083333333334, N
254791, 707.7527777777777, N
254998, 708.3277777777778, N
255203, 708.8972222222222, N
255401, 709.4472222222222, N
255602, 710.0055555555556, N
255797, 710.5472222222222, N
255994, 711.0944444444444, N
256188, 711.6333333333333, N
256389, 712.1916666666667, N
256584, 712.7333333333333, N
256784, 713.2888888888889, N
256990, 713.8611111111111, N
257183, 714.3972222222222, N
257380, 714.9444444444445, N
257577, 715.4916666666667, N
257774, 716.0388888888889, N
257971, 716.5861111111111, N
258175, 717.1527777777778, N
258378, 717.7166666666667, N
258576, 718.2666666666667, N
258768, 718.8, N
258970, 719.3611111111111, N
259166, 719.9055555555556, N
259365, 720.4583333333334, N
259567, 721.0194444444444, N
259766, 721.5722222222222, N
259975, 722.1527777777778, N
260174, 722.7055555555555, N
260373, 723.2583333333333, N
260569, 723.8027777777778, N
260765, 724.3472222222222, N
260966, 724.9055555555556, N
261174, 725.4833333333333, N
261366, 726.0166666666667, N
261564, 726.5666666666667, N
261760, 727.1111111111111, N
261953, 727.6472222222222, N
262153, 728.2027777777778, N
262349, 728.7472222222223, N
262539, 729.275, N
262749, 729.8583333333333, N
262958, 730.4388888888889, N
263156, 730.9888888888889, N
263353, 731.5361111111112, N
263552, 732.0888888888888, N
263751, 732.6416666666667, N
263953, 733.2027777777778, N
264160, 733.7777777777778, N
264356, 734.3222222222222, N
264555, 734.875, N
264750, 735.4166666666666, N
264945, 735.9583333333334, N
265148, 736.5222222222222, N
265343, 737.0638888888889, N
265549, 737.6361111111111, N
265743, 738.175, N
265947, 738.7416666666667, N
266141, 739.2805555555556, N
266337, 739.825, N
266531, 740.3638888888889, N
266729, 740.9138888888889, N
266940, 741.5, N
267140, 742.0555555555555, N
267337, 742.6027777777778, N
267537, 743.1583333333333, N
267741, 743.725, N
267939, 744.275, N
268140, 744.8333333333334, N
268338, 745.3833333333333, N
268537, 745.9361111111111, N
268739, 746.4972222222223, N
268943, 747.0638888888889, N
269138, 747.6055555555556, N
269333, 748.1472222222222, N
269529, 748.6916666666667, N
269730, 749.25, N
269932, 749.8111111111111, N
270132, 750.3666666666667, N
270335, 750.9305555555555, N
270527, 751.4638888888888, N
270725, 752.0138888888889, N
270922, 752.5611111111111, N
271119, 753.1083333333333, N
271315, 753.6527777777778, N
271520, 754.2222222222222, N
271725, 754.7916666666666, N
271921, 755.3361111111111, N
272121, 755.8916666666667, N
272319, 756.4416666666667, N
272513, 756.9805555555556, N
272718, 757.55, N
272925, 758.125, N
273123, 758.675, N
273325, 759.2361111111111, N
273519, 759.775, N
273717, 760.325, N
273911, 760.8638888888889, N
274112, 761.4222222222222, N
274310, 761.9722222222222, N
274506, 762.5166666666667, N
274710, 763.0833333333334, N
274909, 763.6361111111111, F
275108, 764.1888888888889, N
275301, 764.725, F
275498, 765.2722222222222, N
275705, 765.8472222222222, V
275910, 766.4166666666666, N
276105, 766.9583333333334, V
276311, 767.5305555555556, N
276505, 768.0694444444445, F
276704, 768.6222222222223, N
276909, 769.1916666666667, F
277102, 769.7277777777778, N
277304, 770.2888888888889, F
277509, 770.8583333333333, N
277712, 771.4222222222222, F
277905, 771.9583333333334, N
278006, 772.2388888888889, +
278108, 772.5222222222222, V
278300, 773.0555555555555, N
278497, 773.6027777777778, V
278700, 774.1666666666666, N
278903, 774.7305555555556, V
279099, 775.275, N
279271, 775.7527777777777, V
279384, 776.0666666666667, +
279498, 776.3833333333333, N
279692, 776.9222222222222, F
279893, 777.4805555555556, N
280092, 778.0333333333333, F
280294, 778.5944444444444, N
280492, 779.1444444444444, F
280698, 779.7166666666667, N
280903, 780.2861111111112, F
281100, 780.8333333333334, N
281292, 781.3666666666667, F
281491, 781.9194444444445, N
281700, 782.5, F
281903, 783.0638888888889, N
282095, 783.5972222222222, F
282294, 784.15, N
282376, 784.3777777777777, +
282458, 784.6055555555556, V
282688, 785.2444444444444, N
282886, 785.7944444444445, V
283078, 786.3277777777778, N
283285, 786.9027777777778, V
283383, 787.175, +
283482, 787.45, N
283683, 788.0083333333333, F
283875, 788.5416666666666, N
284078, 789.1055555555556, N
284271, 789.6416666666667, N
284469, 790.1916666666667, N
284673, 790.7583333333333, N
284877, 791.325, N
285079, 791.8861111111111, N
285276, 792.4333333333333, F
285469, 792.9694444444444, N
285569, 793.2472222222223, +
285669, 793.525, V
285875, 794.0972222222222, N
286069, 794.6361111111111, V
286269, 795.1916666666667, N
286436, 795.6555555555556, V
286675, 796.3194444444445, N
286868, 796.8555555555556, V
287065, 797.4027777777778, N
287261, 797.9472222222222, V
287361, 798.225, +
287462, 798.5055555555556, N
287664, 799.0666666666667, N
287859, 799.6083333333333, N
288061, 800.1694444444445, N
288256, 800.7111111111111, N
288451, 801.2527777777777, N
288645, 801.7916666666666, N
288847, 802.3527777777778, N
289037, 802.8805555555556, N
289237, 803.4361111111111, F
289442, 804.0055555555556, N
289627, 804.5194444444444, V
289843, 805.1194444444444, N
290039, 805.6638888888889, N
290237, 806.2138888888888, N
290434, 806.7611111111111, N
290636, 807.3222222222222, N
290835, 807.875, N
291041, 808.4472222222222, N
291232, 808.9777777777778, F
291425, 809.5138888888889, N
291587, 809.9638888888888, V
291817, 810.6027777777778, N
292012, 811.1444444444444, N
292211, 811.6972222222222, N
292418, 812.2722222222222, V
292611, 812.8083333333333, N
292807, 813.3527777777778, V
293005, 813.9027777777778, N
293202, 814.45, F
293399, 814.9972222222223, N
293604, 815.5666666666667, F
293806, 816.1277777777777, N
294008, 816.6888888888889, F
294196, 817.2111111111111, N
294394, 817.7611111111111, F
294592, 818.3111111111111, N
294788, 818.8555555555556, F
294982, 819.3944444444444, N
295181, 819.9472222222222, V
295385, 820.5138888888889, N
295565, 821.0138888888889, V
295788, 821.6333333333333, N
295978, 822.1611111111112, F
296176, 822.7111111111111, N
296385, 823.2916666666666, F
296584, 823.8444444444444, N
296778, 824.3833333333333, N
296976, 824.9333333333333, N
297173, 825.4805555555556, N
297375, 826.0416666666666, N
297570, 826.5833333333334, F
297766, 827.1277777777777, N
297969, 827.6916666666667, V
298176, 828.2666666666667, N
298379, 828.8305555555555, V
298575, 829.375, N
298774, 829.9277777777778, F
298971, 830.475, N
299176, 831.0444444444445, F
299375, 831.5972222222222, N
299579, 832.1638888888889, F
299775, 832.7083333333334, N
299980, 833.2777777777778, F
300170, 833.8055555555555, N
300361, 834.3361111111111, F
300568, 834.9111111111112, N
300766, 835.4611111111111, V
300965, 836.0138888888889, N
301165, 836.5694444444445, F
301374, 837.15, N
301577, 837.7138888888888, F
301769, 838.2472222222223, N
301962, 838.7833333333333, N
302168, 839.3555555555556, N
302379, 839.9416666666667, N
302579, 840.4972222222223, N
302775, 841.0416666666666, N
302973, 841.5916666666667, N
303174, 842.15, N
303368, 842.6888888888889, N
303568, 843.2444444444444, F
303766, 843.7944444444445, N
303973, 844.3694444444444, N
304173, 844.925, N
304368, 845.4666666666667, F
304570, 846.0277777777778, N
304770, 846.5833333333334, N
304966, 847.1277777777777, N
305166, 847.6833333333333, N
305376, 848.2666666666667, N
305527, 848.6861111111111, A
305769, 849.3583333333333, N
305961, 849.8916666666667, V
306166, 850.4611111111111, N
306369, 851.025, N
306565, 851.5694444444445, N
306767, 852.1305555555556, N
306968, 852.6888888888889, N
307178, 853.2722222222222, N
307374, 853.8166666666667, N
307572, 854.3666666666667, N
307770, 854.9166666666666, N
307971, 855.475, F
308171, 856.0305555555556, N
308273, 856.3138888888889, +
308376, 856.6, V
308577, 857.1583333333333, N
308761, 857.6694444444445, V
308970, 858.25, N
309166, 858.7944444444445, V
309270, 859.0833333333334, +
309374, 859.3722222222223, N
309568, 859.9111111111112, N
309774, 860.4833333333333, N
309970, 861.0277777777778, N
310177, 861.6027777777778, N
310376, 862.1555555555556, N
310573, 862.7027777777778, N
310766, 863.2388888888889, N
310967, 863.7972222222222, N
311179, 864.3861111111111, F
311385, 864.9583333333334, N
311583, 865.5083333333333, V
311784, 866.0666666666667, N
311985, 866.625, V
312178, 867.1611111111112, N
312379, 867.7194444444444, N
312578, 868.2722222222222, N
312780, 868.8333333333334, N
312978, 869.3833333333333, N
313179, 869.9416666666667, N
313376, 870.4888888888889, N
313572, 871.0333333333333, N
313763, 871.5638888888889, N
313967, 872.1305555555556, N
314175, 872.7083333333334, N
314376, 873.2666666666667, F
314574, 873.8166666666667, N
314764, 874.3444444444444, N
314963, 874.8972222222222, N
315140, 875.3888888888889, V
315363, 876.0083333333333, N
315566, 876.5722222222222, N
315772, 877.1444444444444, N
315973, 877.7027777777778, N
316172, 878.2555555555556, N
316376, 878.8222222222222, V
316574, 879.3722222222223, N
316768, 879.9111111111112, N
316970, 880.4722222222222, N
317175, 881.0416666666666, N
317371, 881.5861111111111, N
317571, 882.1416666666667, N
317764, 882.6777777777778, N
317966, 883.2388888888889, N
318169, 883.8027777777778, N
318310, 884.1944444444445, A
318438, 884.55, V
318751, 885.4194444444445, N
318965, 886.0138888888889, N
319159, 886.5527777777778, N
319359, 887.1083333333333, N
319554, 887.65, F
319756, 888.2111111111111, N
319953, 888.7583333333333, F
320163, 889.3416666666667, N
320358, 889.8833333333333, N
320556, 890.4333333333333, N
320748, 890.9666666666667, N
320950, 891.5277777777778, N
321146, 892.0722222222222, N
321340, 892.6111111111111, N
321542, 893.1722222222222, N
321735, 893.7083333333334, N
321935, 894.2638888888889, F
322132, 894.8111111111111, N
322260, 895.1666666666666, +
322328, 895.3555555555556, V
322505, 895.8472222222222, V
322720, 896.4444444444445, F
322850, 896.8055555555555, +
322928, 897.0222222222222, N
323132, 897.5888888888888, N
323326, 898.1277777777777, N
323526, 898.6833333333333, N
323724, 899.2333333333333, N
323921, 899.7805555555556, N
324120, 900.3333333333334, N
324319, 900.8861111111111, F
324519, 901.4416666666667, N
324700, 901.9444444444445, V
324921, 902.5583333333333, N
325122, 903.1166666666667, N
325318, 903.6611111111112, N
325512, 904.2, N
325714, 904.7611111111111, N
325914, 905.3166666666667, N
326115, 905.875, N
326309, 906.4138888888889, N
326516, 906.9888888888889, N
326707, 907.5194444444444, N
326896, 908.0444444444445, F
327105, 908.625, V
327303, 909.175, N
327506, 909.7388888888889, F
327703, 910.2861111111112, N
327915, 910.875, N
328109, 911.4138888888889, N
328309, 911.9694444444444, N
328509, 912.525, N
328707, 913.075, N
328912, 913.6444444444444, N
329120, 914.2222222222222, N
329319, 914.775, N
329516, 915.3222222222222, V
329715, 915.875, N
329917, 916.4361111111111, F
330118, 916.9944444444444, N
330313, 917.5361111111112, F
330518, 918.1055555555556, N
330717, 918.6583333333333, N
330923, 919.2305555555556, N
331118, 919.7722222222222, N
331316, 920.3222222222222, N
331514, 920.8722222222223, N
331718, 921.4388888888889, N
331880, 921.8888888888889, A
332120, 922.5555555555555, N
332308, 923.0777777777778, V
332524, 923.6777777777778, N
332726, 924.2388888888889, N
332867, 924.6305555555556, A
333110, 925.3055555555555, N
333316, 925.8777777777777, N
333523, 926.4527777777778, N
333725, 927.0138888888889, N
333923, 927.5638888888889, N
334129, 928.1361111111111, N
334321, 928.6694444444445, N
334517, 929.2138888888888, N
334723, 929.7861111111112, N
334926, 930.35, N
335127, 930.9083333333333, N
335331, 931.475, N
335519, 931.9972222222223, N
335719, 932.5527777777778, N
335924, 933.1222222222223, N
336122, 933.6722222222222, N
336321, 934.225, N
336521, 934.7805555555556, N
336735, 935.375, N
336931, 935.9194444444445, N
337131, 936.475, N
337327, 937.0194444444444, N
337532, 937.5888888888888, N
337736, 938.1555555555556, N
337941, 938.725, N
338138, 939.2722222222222, N
338335, 939.8194444444445, N
338534, 940.3722222222223, N
338733, 940.925, N
338937, 941.4916666666667, N
339127, 942.0194444444444, N
339331, 942.5861111111111, N
339538, 943.1611111111112, N
339736, 943.7111111111111, N
339895, 944.1527777777778, A
340133, 944.8138888888889, N
340333, 945.3694444444444, N
340532, 945.9222222222222, N
340739, 946.4972222222223, N
340945, 947.0694444444445, N
341146, 947.6277777777777, N
341343, 948.175, N
341548, 948.7444444444444, N
341743, 949.2861111111112, N
341946, 949.85, N
342147, 950.4083333333333, N
342346, 950.9611111111111, N
342551, 951.5305555555556, N
342755, 952.0972222222222, N
342952, 952.6444444444444, N
343145, 953.1805555555555, N
343345, 953.7361111111111, N
343547, 954.2972222222222, N
343753, 954.8694444444444, N
343951, 955.4194444444445, N
344153, 955.9805555555556, N
344343, 956.5083333333333, N
344539, 957.0527777777778, N
344744, 957.6222222222223, N
344938, 958.1611111111112, N
345138, 958.7166666666667, N
345343, 959.2861111111112, N
345551, 959.8638888888889, N
345747, 960.4083333333333, N
345949, 960.9694444444444, N
346146, 961.5166666666667, N
346344, 962.0666666666667, N
346548, 962.6333333333333, N
346755, 963.2083333333334, N
346954, 963.7611111111111, N
347154, 964.3166666666667, N
347348, 964.8555555555556, N
347546, 965.4055555555556, N
347746, 965.9611111111111, N
347940, 966.5, N
348145, 967.0694444444445, N
348349, 967.6361111111111, N
348548, 968.1888888888889, N
348741, 968.725, N
348938, 969.2722222222222, N
349132, 969.8111111111111, N
349327, 970.3527777777778, N
349536, 970.9333333333333, N
349745, 971.5138888888889, N
349944, 972.0666666666667, N
350140, 972.6111111111111, N
350337, 973.1583333333333, N
350535, 973.7083333333334, N
350737, 974.2694444444444, N
350938, 974.8277777777778, N
351141, 975.3916666666667, N
351341, 975.9472222222222, N
351541, 976.5027777777777, N
351737, 977.0472222222222, N
351932, 977.5888888888888, N
352123, 978.1194444444444, N
352318, 978.6611111111112, N
352525, 979.2361111111111, N
352722, 979.7833333333333, N
352920, 980.3333333333334, N
353112, 980.8666666666667, N
353313, 981.425, N
353505, 981.9583333333334, N
353702, 982.5055555555556, N
353898, 983.05, N
354102, 983.6166666666667, N
354305, 984.1805555555555, N
354501, 984.725, N
354703, 985.2861111111112, N
354899, 985.8305555555555, N
355092, 986.3666666666667, N
355293, 986.925, N
355498, 987.4944444444444, N
355695, 988.0416666666666, N
355894, 988.5944444444444, N
356086, 989.1277777777777, N
356281, 989.6694444444445, N
356474, 990.2055555555555, N
356673, 990.7583333333333, N
356869, 991.3027777777778, N
357070, 991.8611111111111, N
357275, 992.4305555555555, N
357473, 992.9805555555556, N
357674, 993.5388888888889, N
357864, 994.0666666666667, N
358059, 994.6083333333333, N
358264, 995.1777777777778, N
358474, 995.7611111111111, N
358668, 996.3, N
358871, 996.8638888888889, N
359063, 997.3972222222222, N
359259, 997.9416666666667, N
359451, 998.475, N
359644, 999.0111111111111, N
359843, 999.5638888888889, N
360042, 1000.1166666666667, N
360243, 1000.675, N
360395, 1001.0972222222222, A
360629, 1001.7472222222223, N
360820, 1002.2777777777778, N
361012, 1002.8111111111111, N
361208, 1003.3555555555556, N
361414, 1003.9277777777778, N
361613, 1004.4805555555556, N
361810, 1005.0277777777778, N
362000, 1005.5555555555555, N
362192, 1006.0888888888888, N
362388, 1006.6333333333333, N
362589, 1007.1916666666667, N
362783, 1007.7305555555556, N
362981, 1008.2805555555556, N
363186, 1008.85, N
363389, 1009.4138888888889, N
363586, 1009.9611111111111, N
363780, 1010.5, N
363980, 1011.0555555555555, N
364184, 1011.6222222222223, N
364390, 1012.1944444444445, N
364587, 1012.7416666666667, N
364790, 1013.3055555555555, N
364985, 1013.8472222222222, N
365181, 1014.3916666666667, N
365379, 1014.9416666666667, N
365581, 1015.5027777777777, N
365780, 1016.0555555555555, N
365983, 1016.6194444444444, N
366189, 1017.1916666666667, N
366392, 1017.7555555555556, N
366591, 1018.3083333333333, N
366787, 1018.8527777777778, N
366992, 1019.4222222222222, N
367203, 1020.0083333333333, N
367408, 1020.5777777777778, N
367606, 1021.1277777777777, N
367813, 1021.7027777777778, N
368010, 1022.25, N
368207, 1022.7972222222222, N
368410, 1023.3611111111111, N
368615, 1023.9305555555555, N
368820, 1024.5, N
369017, 1025.0472222222222, N
369224, 1025.6222222222223, N
369424, 1026.1777777777777, N
369622, 1026.7277777777779, N
369817, 1027.2694444444444, N
370020, 1027.8333333333333, N
370232, 1028.4222222222222, N
370433, 1028.9805555555556, N
370633, 1029.536111111111, N
370835, 1030.0972222222222, N
371034, 1030.65, N
371234, 1031.2055555555555, N
371439, 1031.775, N
371642, 1032.338888888889, N
371844, 1032.9, N
372051, 1033.475, N
372258, 1034.05, N
372458, 1034.6055555555556, N
372653, 1035.1472222222221, N
372854, 1035.7055555555555, N
373065, 1036.2916666666667, N
373271, 1036.8638888888888, N
373468, 1037.411111111111, N
373678, 1037.9944444444445, N
373871, 1038.5305555555556, N
374069, 1039.0805555555555, N
374272, 1039.6444444444444, N
374474, 1040.2055555555555, N
374676, 1040.7666666666667, N
374878, 1041.3277777777778, N
375088, 1041.911111111111, F
375285, 1042.4583333333333, N
375486, 1043.0166666666667, F
375684, 1043.5666666666666, N
375893, 1044.1472222222221, F
376101, 1044.725, N
376196, 1044.9888888888888, +
376292, 1045.2555555555555, V
376507, 1045.8527777777779, N
376690, 1046.361111111111, V
376909, 1046.9694444444444, N
377087, 1047.463888888889, V
377312, 1048.088888888889, N
377477, 1048.5472222222222, V
377597, 1048.8805555555555, +
377717, 1049.213888888889, N
377920, 1049.7777777777778, F
378116, 1050.3222222222223, N
378316, 1050.8777777777777, F
378515, 1051.4305555555557, N
378707, 1051.963888888889, F
378912, 1052.5333333333333, N
379120, 1053.111111111111, F
379215, 1053.375, +
379318, 1053.661111111111, V
379489, 1054.1361111111112, V
379676, 1054.6555555555556, V
379901, 1055.2805555555556, V
380044, 1055.6777777777777, +
380127, 1055.9083333333333, N
380307, 1056.4083333333333, F
380526, 1057.0166666666667, N
380734, 1057.5944444444444, N
380934, 1058.15, N
381127, 1058.6861111111111, F
381330, 1059.25, N
381413, 1059.4805555555556, +
381497, 1059.713888888889, V
381732, 1060.3666666666666, N
381930, 1060.9166666666667, V
382133, 1061.4805555555556, N
382313, 1061.9805555555556, V
382399, 1062.2194444444444, +
382485, 1062.4583333333333, N
382717, 1063.1027777777779, F
382913, 1063.6472222222221, N
383123, 1064.2305555555556, F
383314, 1064.7611111111112, N
383516, 1065.3222222222223, F
383719, 1065.8861111111112, N
383923, 1066.4527777777778, V
384129, 1067.025, N
384328, 1067.5777777777778, F
384522, 1068.1166666666666, N
384697, 1068.6027777777779, V
384933, 1069.2583333333334, N
385136, 1069.8222222222223, F
385339, 1070.3861111111112, N
385536, 1070.9333333333334, F
385731, 1071.475, N
385831, 1071.7527777777777, +
385932, 1072.0333333333333, V
386134, 1072.5944444444444, N
386325, 1073.125, V
386527, 1073.6861111111111, N
386736, 1074.2666666666667, V
386932, 1074.8111111111111, N
387129, 1075.3583333333333, V
387327, 1075.9083333333333, N
387528, 1076.4666666666667, V
387729, 1077.025, N
387935, 1077.5972222222222, V
388036, 1077.8777777777777, +
388137, 1078.1583333333333, N
388335, 1078.7083333333333, F
388531, 1079.2527777777777, N
388734, 1079.8166666666666, V
388876, 1080.2111111111112, A
389008, 1080.5777777777778, V
389326, 1081.4611111111112, N
389536, 1082.0444444444445, N
389740, 1082.611111111111, F
389941, 1083.1694444444445, N
390139, 1083.7194444444444, V
390337, 1084.2694444444444, N
390538, 1084.8277777777778, N
390735, 1085.375, N
390940, 1085.9444444444443, N
391142, 1086.5055555555555, N
391345, 1087.0694444444443, N
391533, 1087.5916666666667, N
391733, 1088.1472222222221, N
391939, 1088.7194444444444, N
392137, 1089.2694444444444, N
392337, 1089.825, N
392540, 1090.388888888889, F
392748, 1090.9666666666667, N
392927, 1091.463888888889, V
393142, 1092.0611111111111, N
393347, 1092.6305555555555, N
393546, 1093.1833333333334, N
393751, 1093.7527777777777, N
393958, 1094.3277777777778, N
394160, 1094.888888888889, N
394355, 1095.4305555555557, N
394555, 1095.986111111111, N
394755, 1096.5416666666667, N
394953, 1097.0916666666667, N
395149, 1097.6361111111112, N
395357, 1098.213888888889, F
395556, 1098.7666666666667, N
395757, 1099.325, N
395959, 1099.8861111111112, N
396158, 1100.4388888888889, V
396354, 1100.9833333333333, N
396539, 1101.4972222222223, V
396770, 1102.138888888889, N
396970, 1102.6944444444443, F
397175, 1103.263888888889, N
397372, 1103.8111111111111, F
397573, 1104.3694444444445, N
397769, 1104.9138888888888, F
397973, 1105.4805555555556, N
398175, 1106.0416666666667, N
398372, 1106.588888888889, N
398579, 1107.1638888888888, N
398778, 1107.7166666666667, N
398977, 1108.2694444444444, N
399170, 1108.8055555555557, N
399370, 1109.361111111111, F
399577, 1109.9361111111111, N
399777, 1110.4916666666666, F
399973, 1111.036111111111, N
400178, 1111.6055555555556, N
400376, 1112.1555555555556, N
400573, 1112.7027777777778, N
400773, 1113.2583333333334, N
400972, 1113.8111111111111, N
401174, 1114.3722222222223, N
401375, 1114.9305555555557, N
401586, 1115.5166666666667, N
401785, 1116.0694444444443, N
401986, 1116.6277777777777, N
402184, 1117.1777777777777, F
402388, 1117.7444444444445, N
402572, 1118.2555555555555, V
402795, 1118.875, N
402968, 1119.3555555555556, V
403196, 1119.9888888888888, N
403393, 1120.536111111111, F
403592, 1121.088888888889, N
403794, 1121.65, N
403989, 1122.1916666666666, N
404195, 1122.763888888889, N
404400, 1123.3333333333333, N
404600, 1123.888888888889, N
404800, 1124.4444444444443, N
405002, 1125.0055555555555, N
405195, 1125.5416666666667, N
405364, 1126.0111111111112, V
405606, 1126.6833333333334, N
405807, 1127.2416666666666, N
406008, 1127.8, N
406211, 1128.3638888888888, V
406408, 1128.911111111111, N
406607, 1129.463888888889, F
406809, 1130.025, N
407012, 1130.588888888889, F
407217, 1131.1583333333333, N
407419, 1131.7194444444444, F
407619, 1132.275, N
407825, 1132.8472222222222, F
408016, 1133.3777777777777, N
408217, 1133.9361111111111, F
408421, 1134.5027777777777, N
408625, 1135.0694444444443, F
408821, 1135.6138888888888, N
409030, 1136.1944444444443, V
409222, 1136.7277777777779, N
409421, 1137.2805555555556, F
409627, 1137.8527777777779, N
409822, 1138.3944444444444, N
410026, 1138.9611111111112, N
410228, 1139.5222222222221, N
410439, 1140.1083333333333, N
410639, 1140.6638888888888, N
410837, 1141.213888888889, N
411034, 1141.7611111111112, N
411239, 1142.3305555555555, N
411447, 1142.9083333333333, N
411650, 1143.4722222222222, N
411852, 1144.0333333333333, F
412052, 1144.588888888889, N
412229, 1145.0805555555555, V
412451, 1145.6972222222223, N
412656, 1146.2666666666667, N
412852, 1146.8111111111111, N
413058, 1147.3833333333334, N
413258, 1147.9388888888889, N
413461, 1148.5027777777777, N
413665, 1149.0694444444443, N
413860, 1149.611111111111, N
414055, 1150.1527777777778, N
414262, 1150.7277777777779, N
414474, 1151.3166666666666, N
414670, 1151.861111111111, V
414874, 1152.4277777777777, N
415077, 1152.9916666666666, N
415278, 1153.55, N
415474, 1154.0944444444444, N
415673, 1154.6472222222221, N
415883, 1155.2305555555556, N
416082, 1155.7833333333333, N
416294, 1156.3722222222223, N
416490, 1156.9166666666667, N
416689, 1157.4694444444444, N
416886, 1158.0166666666667, N
417089, 1158.5805555555555, N
417294, 1159.15, N
417482, 1159.6722222222222, V
417700, 1160.2777777777778, N
417904, 1160.8444444444444, N
418095, 1161.375, N
418295, 1161.9305555555557, F
418501, 1162.5027777777777, N
418651, 1162.9194444444445, V
418898, 1163.6055555555556, N
419107, 1164.1861111111111, F
419309, 1164.7472222222223, N
419507, 1165.2972222222222, F
419707, 1165.8527777777779, N
419905, 1166.4027777777778, F
420106, 1166.9611111111112, N
420313, 1167.536111111111, F
420517, 1168.1027777777779, N
420719, 1168.6638888888888, N
420910, 1169.1944444444443, N
421111, 1169.7527777777777, N
421310, 1170.3055555555557, N
421507, 1170.8527777777779, F
421705, 1171.4027777777778, N
421910, 1171.9722222222222, F
422115, 1172.5416666666667, N
422312, 1173.088888888889, F
422516, 1173.6555555555556, N
422711, 1174.1972222222223, N
422906, 1174.7388888888888, N
423112, 1175.3111111111111, N
423322, 1175.8944444444444, N
423520, 1176.4444444444443, N
423724, 1177.0111111111112, N
423924, 1177.5666666666666, F
424119, 1178.1083333333333, N
424305, 1178.625, V
424524, 1179.2333333333333, N
424727, 1179.7972222222222, F
424929, 1180.3583333333333, N
425137, 1180.9361111111111, F
425329, 1181.4694444444444, N
425533, 1182.036111111111, F
425715, 1182.5416666666667, N
425927, 1183.1305555555555, F
426133, 1183.7027777777778, N
426327, 1184.2416666666666, V
426543, 1184.8416666666667, N
426738, 1185.3833333333334, N
426934, 1185.9277777777777, N
427133, 1186.4805555555556, N
427343, 1187.0638888888889, N
427536, 1187.6, N
427739, 1188.1638888888888, N
427949, 1188.7472222222223, N
428154, 1189.3166666666666, N
428353, 1189.8694444444445, F
428549, 1190.4138888888888, N
428716, 1190.8777777777777, V
428958, 1191.55, N
429164, 1192.1222222222223, N
429367, 1192.6861111111111, N
429571, 1193.2527777777777, N
429762, 1193.7833333333333, N
429961, 1194.3361111111112, N
430163, 1194.8972222222221, N
430364, 1195.4555555555555, N
430565, 1196.013888888889, N
430768, 1196.5777777777778, N
430977, 1197.1583333333333, N
431172, 1197.7, F
431374, 1198.2611111111112, N
431572, 1198.8111111111111, N
431781, 1199.3916666666667, N
431985, 1199.9583333333333, N
432193, 1200.536111111111, N
432397, 1201.1027777777779, N
432605, 1201.6805555555557, N
432799, 1202.2194444444444, N
432994, 1202.7611111111112, N
433204, 1203.3444444444444, N
433399, 1203.8861111111112, N
433602, 1204.45, N
433805, 1205.013888888889, N
434015, 1205.5972222222222, N
434210, 1206.138888888889, N
434408, 1206.6888888888889, N
434607, 1207.2416666666666, N
434813, 1207.8138888888889, N
435019, 1208.3861111111112, N
435223, 1208.9527777777778, N
435430, 1209.5277777777778, N
435625, 1210.0694444444443, N
435824, 1210.6222222222223, N
436026, 1211.1833333333334, N
436227, 1211.7416666666666, N
436427, 1212.2972222222222, N
436633, 1212.8694444444445, N
436847, 1213.463888888889, N
437043, 1214.0083333333334, N
437240, 1214.5555555555557, N
437443, 1215.1194444444445, N
437648, 1215.6888888888889, N
437851, 1216.2527777777777, N
438059, 1216.8305555555555, N
438261, 1217.3916666666667, N
438463, 1217.9527777777778, N
438654, 1218.4833333333333, N
438856, 1219.0444444444445, N
439061, 1219.6138888888888, N
439256, 1220.1555555555556, N
439463, 1220.7305555555556, N
439666, 1221.2944444444445, N
439869, 1221.8583333333333, N
440067, 1222.4083333333333, N
440269, 1222.9694444444444, N
440473, 1223.536111111111, N
440675, 1224.0972222222222, N
440884, 1224.6777777777777, N
441090, 1225.25, N
441301, 1225.8361111111112, N
441494, 1226.3722222222223, N
441697, 1226.9361111111111, N
441902, 1227.5055555555555, N
442106, 1228.0722222222223, N
442302, 1228.6166666666666, N
442506, 1229.1833333333334, N
442718, 1229.7722222222221, N
442914, 1230.3166666666666, N
443112, 1230.8666666666666, N
443313, 1231.425, N
443518, 1231.9944444444445, N
443721, 1232.5583333333334, N
443927, 1233.1305555555555, N
444131, 1233.6972222222223, N
444338, 1234.2722222222221, N
444533, 1234.8138888888889, N
444734, 1235.3722222222223, N
444941, 1235.9472222222223, N
445144, 1236.5111111111112, N
445349, 1237.0805555555555, N
445555, 1237.6527777777778, N
445765, 1238.236111111111, N
445961, 1238.7805555555556, N
446167, 1239.3527777777779, N
446367, 1239.9083333333333, N
446573, 1240.4805555555556, N
446774, 1241.0388888888888, N
446979, 1241.6083333333333, N
447185, 1242.1805555555557, N
447387, 1242.7416666666666, N
447580, 1243.2777777777778, N
447777, 1243.825, N
447989, 1244.4138888888888, N
448188, 1244.9666666666667, N
448390, 1245.5277777777778, N
448596, 1246.1, N
448805, 1246.6805555555557, N
449007, 1247.2416666666666, N
449203, 1247.786111111111, N
449405, 1248.3472222222222, N
449617, 1248.9361111111111, N
449831, 1249.5305555555556, N
450029, 1250.0805555555555, N
450231, 1250.6416666666667, N
450431, 1251.1972222222223, N
450636, 1251.7666666666667, N
450836, 1252.3222222222223, N
451033, 1252.8694444444445, N
451240, 1253.4444444444443, N
451450, 1254.0277777777778, N
451651, 1254.5861111111112, N
451848, 1255.1333333333334, N
452055, 1255.7083333333333, N
452259, 1256.275, N
452461, 1256.8361111111112, N
452663, 1257.3972222222221, N
452871, 1257.975, N
453079, 1258.5527777777777, N
453279, 1259.1083333333333, N
453479, 1259.6638888888888, N
453689, 1260.2472222222223, N
453892, 1260.8111111111111, N
454089, 1261.3583333333333, N
454297, 1261.9361111111111, N
454510, 1262.5277777777778, N
454717, 1263.1027777777779, N
454916, 1263.6555555555556, N
455112, 1264.2, N
455318, 1264.7722222222221, N
455527, 1265.3527777777779, N
455735, 1265.9305555555557, N
455932, 1266.4777777777779, N
456137, 1267.0472222222222, N
456341, 1267.6138888888888, N
456543, 1268.175, N
456744, 1268.7333333333333, N
456944, 1269.2888888888888, N
457156, 1269.8777777777777, N
457359, 1270.4416666666666, N
457565, 1271.013888888889, N
457761, 1271.5583333333334, N
457972, 1272.1444444444444, N
458175, 1272.7083333333333, N
458377, 1273.2694444444444, N
458591, 1273.8638888888888, N
458797, 1274.4361111111111, N
458997, 1274.9916666666666, N
459195, 1275.5416666666667, N
459394, 1276.0944444444444, N
459602, 1276.6722222222222, N
459807, 1277.2416666666666, N
460005, 1277.7916666666667, N
460206, 1278.35, N
460418, 1278.9388888888889, N
460622, 1279.5055555555555, N
460824, 1280.0666666666666, N
461021, 1280.6138888888888, N
461228, 1281.1888888888889, N
461437, 1281.7694444444444, N
461643, 1282.3416666666667, N
461843, 1282.8972222222221, N
462055, 1283.486111111111, N
462257, 1284.0472222222222, N
462457, 1284.6027777777779, N
462661, 1285.1694444444445, N
462867, 1285.7416666666666, N
463073, 1286.3138888888889, N
463276, 1286.8777777777777, N
463487, 1287.463888888889, N
463690, 1288.0277777777778, N
463890, 1288.5833333333333, N
464087, 1289.1305555555555, N
464299, 1289.7194444444444, N
464510, 1290.3055555555557, N
464705, 1290.8472222222222, N
464912, 1291.4222222222222, N
465115, 1291.986111111111, N
465318, 1292.55, N
465516, 1293.1, N
465719, 1293.6638888888888, N
465929, 1294.2472222222223, N
466131, 1294.8083333333334, N
466338, 1295.3833333333334, N
466538, 1295.9388888888889, N
466751, 1296.5305555555556, N
466951, 1297.0861111111112, N
467150, 1297.638888888889, N
467354, 1298.2055555555555, N
467570, 1298.8055555555557, N
467777, 1299.3805555555555, N
467976, 1299.9333333333334, N
468179, 1300.4972222222223, N
468374, 1301.0388888888888, N
468581, 1301.6138888888888, N
468783, 1302.175, N
468983, 1302.7305555555556, N
469189, 1303.3027777777777, N
469394, 1303.8722222222223, N
469602, 1304.45, N
469797, 1304.9916666666666, N
469995, 1305.5416666666667, N
470204, 1306.1222222222223, N
470422, 1306.7277777777779, N
470622, 1307.2833333333333, N
470822, 1307.838888888889, N
471022, 1308.3944444444444, N
471234, 1308.9833333333333, N
471439, 1309.5527777777777, N
471634, 1310.0944444444444, N
471841, 1310.6694444444445, N
472054, 1311.2611111111112, N
472260, 1311.8333333333333, N
472458, 1312.3833333333334, N
472664, 1312.9555555555555, N
472865, 1313.513888888889, N
473066, 1314.0722222222223, N
473268, 1314.6333333333334, N
473476, 1315.2111111111112, N
473685, 1315.7916666666667, N
473883, 1316.3416666666667, N
474074, 1316.8722222222223, N
474286, 1317.4611111111112, N
474491, 1318.0305555555556, N
474692, 1318.588888888889, N
474898, 1319.161111111111, N
475112, 1319.7555555555555, N
475314, 1320.3166666666666, N
475514, 1320.8722222222223, N
475709, 1321.4138888888888, N
475919, 1321.9972222222223, N
476129, 1322.5805555555555, N
476339, 1323.1638888888888, N
476538, 1323.7166666666667, N
476749, 1324.3027777777777, N
476950, 1324.861111111111, N
477147, 1325.4083333333333, N
477349, 1325.9694444444444, N
477548, 1326.5222222222221, F
477761, 1327.1138888888888, N
477969, 1327.6916666666666, F
478169, 1328.2472222222223, N
478372, 1328.8111111111111, F
478576, 1329.3777777777777, N
478775, 1329.9305555555557, F
478977, 1330.4916666666666, N
479190, 1331.0833333333333, F
479398, 1331.661111111111, N
479602, 1332.2277777777779, F
479799, 1332.775, N
480004, 1333.3444444444444, F
480209, 1333.9138888888888, N
480408, 1334.4666666666667, F
480614, 1335.0388888888888, N
480811, 1335.5861111111112, V
481034, 1336.2055555555555, N
481230, 1336.75, N
481437, 1337.325, N
481637, 1337.8805555555555, F
481829, 1338.4138888888888, N
482035, 1338.986111111111, F
482247, 1339.575, N
482454, 1340.15, V
482652, 1340.7, N
482847, 1341.2416666666666, F
483046, 1341.7944444444445, N
483239, 1342.3305555555555, V
483459, 1342.9416666666666, N
483662, 1343.5055555555555, F
483866, 1344.0722222222223, N
484081, 1344.6694444444445, V
484283, 1345.2305555555556, N
484482, 1345.7833333333333, F
484679, 1346.3305555555555, N
484888, 1346.911111111111, F
485099, 1347.4972222222223, N
485295, 1348.0416666666667, F
485498, 1348.6055555555556, N
485698, 1349.161111111111, F
485904, 1349.7333333333333, N
486096, 1350.2666666666667, F
486295, 1350.8194444444443, N
486464, 1351.2888888888888, V
486709, 1351.9694444444444, N
486914, 1352.5388888888888, F
487113, 1353.0916666666667, N
487323, 1353.675, V
487517, 1354.213888888889, N
487715, 1354.763888888889, F
487919, 1355.3305555555555, N
488135, 1355.9305555555557, F
488338, 1356.4944444444445, N
488538, 1357.05, F
488735, 1357.5972222222222, N
488940, 1358.1666666666667, F
489140, 1358.7222222222222, N
489337, 1359.2694444444444, F
489547, 1359.8527777777779, N
489755, 1360.4305555555557, V
489946, 1360.9611111111112, N
490150, 1361.5277777777778, F
490360, 1362.111111111111, N
490555, 1362.6527777777778, N
490757, 1363.213888888889, N
490963, 1363.786111111111, N
491172, 1364.3666666666666, N
491371, 1364.9194444444445, N
491568, 1365.4666666666667, N
491774, 1366.0388888888888, F
491977, 1366.6027777777779, N
492177, 1367.1583333333333, V
492376, 1367.7111111111112, N
492590, 1368.3055555555557, N
492800, 1368.888888888889, N
492997, 1369.4361111111111, N
493201, 1370.0027777777777, N
493403, 1370.5638888888889, F
493601, 1371.1138888888888, N
493804, 1371.6777777777777, N
494016, 1372.2666666666667, N
494221, 1372.8361111111112, N
494420, 1373.388888888889, N
494614, 1373.9277777777777, N
494813, 1374.4805555555556, N
495022, 1375.0611111111111, N
495217, 1375.6027777777779, N
495420, 1376.1666666666667, F
495624, 1376.7333333333333, N
495795, 1377.2083333333333, V
496031, 1377.8638888888888, N
496232, 1378.4222222222222, N
496429, 1378.9694444444444, N
496534, 1379.2611111111112, +
496639, 1379.5527777777777, V
496845, 1380.125, N
497052, 1380.7, V
497256, 1381.2666666666667, N
497460, 1381.8333333333333, V
497557, 1382.1027777777779, +
497655, 1382.375, N
497856, 1382.9333333333334, F
498062, 1383.5055555555555, N
498263, 1384.0638888888889, N
498466, 1384.6277777777777, N
498675, 1385.2083333333333, N
498879, 1385.775, N
499073, 1386.3138888888889, N
499268, 1386.8555555555556, N
499475, 1387.4305555555557, N
499677, 1387.9916666666666, N
499781, 1388.2805555555556, +
499886, 1388.5722222222223, V
500090, 1389.138888888889, N
500262, 1389.6166666666666, V
500491, 1390.2527777777777, N
500674, 1390.7611111111112, V
500786, 1391.0722222222223, +
500898, 1391.3833333333334, N
501104, 1391.9555555555555, F
501311, 1392.5305555555556, N
501512, 1393.088888888889, N
501716, 1393.6555555555556, N
501921, 1394.225, N
502124, 1394.7888888888888, N
502320, 1395.3333333333333, N
502521, 1395.8916666666667, N
502737, 1396.4916666666666, N
502943, 1397.0638888888889, N
503142, 1397.6166666666666, N
503334, 1398.15, N
503539, 1398.7194444444444, F
503743, 1399.286111111111, N
503940, 1399.8333333333333, V
504147, 1400.4083333333333, F
504328, 1400.911111111111, V
504560, 1401.5555555555557, N
504761, 1402.1138888888888, N
504960, 1402.6666666666667, F
505165, 1403.236111111111, F
505367, 1403.7972222222222, N
505573, 1404.3694444444445, F
505780, 1404.9444444444443, N
505987, 1405.5194444444444, F
506189, 1406.0805555555555, N
506383, 1406.6194444444445, F
506587, 1407.1861111111111, N
506795, 1407.763888888889, V
506988, 1408.3, N
507196, 1408.8777777777777, F
507402, 1409.45, N
507612, 1410.0333333333333, N
507805, 1410.5694444444443, N
508006, 1411.1277777777777, N
508205, 1411.6805555555557, N
508415, 1412.263888888889, N
508623, 1412.8416666666667, N
508822, 1413.3944444444444, F
509027, 1413.963888888889, N
509213, 1414.4805555555556, V
509429, 1415.0805555555555, N
509629, 1415.6361111111112, N
509835, 1416.2083333333333, N
510046, 1416.7944444444445, N
510242, 1417.338888888889, N
510447, 1417.9083333333333, N
510650, 1418.4722222222222, N
510860, 1419.0555555555557, F
511052, 1419.588888888889, N
511251, 1420.1416666666667, F
511461, 1420.725, N
511673, 1421.3138888888889, V
511868, 1421.8555555555556, N
512069, 1422.4138888888888, F
512264, 1422.9555555555555, N
512471, 1423.5305555555556, N
512679, 1424.1083333333333, N
512870, 1424.638888888889, F
513074, 1425.2055555555555, N
513283, 1425.786111111111, N
513491, 1426.3638888888888, N
513688, 1426.911111111111, F
513894, 1427.4833333333333, F
514057, 1427.9361111111111, V
514302, 1428.6166666666666, N
514506, 1429.1833333333334, F
514710, 1429.75, N
514922, 1430.338888888889, F
515112, 1430.8666666666666, N
515314, 1431.4277777777777, N
515518, 1431.9944444444445, N
515721, 1432.5583333333334, N
515922, 1433.1166666666666, N
516125, 1433.6805555555557, N
516335, 1434.263888888889, N
516531, 1434.8083333333334, F
516734, 1435.3722222222223, N
516934, 1435.9277777777777, N
517133, 1436.4805555555556, N
517337, 1437.0472222222222, F
517549, 1437.6361111111112, N
517754, 1438.2055555555555, F
517950, 1438.75, N
518148, 1439.3, V
518291, 1439.6972222222223, A
518543, 1440.3972222222221, N
518744, 1440.9555555555555, N
518957, 1441.5472222222222, N
519169, 1442.1361111111112, N
519369, 1442.6916666666666, N
519567, 1443.2416666666666, N
519770, 1443.8055555555557, N
519971, 1444.3638888888888, N
520173, 1444.925, F
520382, 1445.5055555555555, N
520567, 1446.0194444444444, V
520791, 1446.6416666666667, N
520986, 1447.1833333333334, N
521188, 1447.7444444444445, N
521394, 1448.3166666666666, N
521592, 1448.8666666666666, N
521793, 1449.425, N
522002, 1450.0055555555555, N
522208, 1450.5777777777778, N
522404, 1451.1222222222223, N
522610, 1451.6944444444443, N
522817, 1452.2694444444444, N
523018, 1452.8277777777778, N
523222, 1453.3944444444444, N
523436, 1453.9888888888888, V
523636, 1454.5444444444445, N
523839, 1455.1083333333333, N
524039, 1455.6638888888888, N
524247, 1456.2416666666666, F
524449, 1456.8027777777777, N
524646, 1457.35, F
524854, 1457.9277777777777, N
525002, 1458.338888888889, A
525252, 1459.0333333333333, N
525457, 1459.6027777777779, V
525663, 1460.175, N
525866, 1460.7388888888888, F
526065, 1461.2916666666667, N
526278, 1461.8833333333334, F
526486, 1462.4611111111112, N
526687, 1463.0194444444444, N
526883, 1463.5638888888889, N
527092, 1464.1444444444444, N
527299, 1464.7194444444444, N
527494, 1465.2611111111112, N
527698, 1465.8277777777778, N
527907, 1466.4083333333333, N
528121, 1467.0027777777777, N
528318, 1467.55, N
528524, 1468.1222222222223, N
528729, 1468.6916666666666, N
528926, 1469.2388888888888, N
529130, 1469.8055555555557, F
529339, 1470.3861111111112, N
529547, 1470.963888888889, N
529749, 1471.525, N
529942, 1472.0611111111111, N
530139, 1472.6083333333333, N
530344, 1473.1777777777777, N
530553, 1473.7583333333334, N
530763, 1474.3416666666667, N
530963, 1474.8972222222221, N
531169, 1475.4694444444444, N
531375, 1476.0416666666667, N
531584, 1476.6222222222223, N
531781, 1477.1694444444445, N
531984, 1477.7333333333333, F
532199, 1478.3305555555555, N
532409, 1478.9138888888888, N
532613, 1479.4805555555556, N
532806, 1480.0166666666667, F
533014, 1480.5944444444444, N
533222, 1481.1722222222222, N
533418, 1481.7166666666667, N
533619, 1482.275, N
533827, 1482.8527777777779, N
534041, 1483.4472222222223, N
534233, 1483.9805555555556, N
534436, 1484.5444444444445, N
534638, 1485.1055555555556, N
534847, 1485.6861111111111, N
535051, 1486.2527777777777, N
535255, 1486.8194444444443, F
535460, 1487.388888888889, N
535643, 1487.8972222222221, V
535873, 1488.536111111111, N
536010, 1488.9166666666667, a
536146, 1489.2944444444445, V
536469, 1490.1916666666666, N
536684, 1490.7888888888888, N
536887, 1491.3527777777779, N
537090, 1491.9166666666667, N
537299, 1492.4972222222223, N
537494, 1493.0388888888888, N
537688, 1493.5777777777778, N
537895, 1494.1527777777778, N
538108, 1494.7444444444445, N
538307, 1495.2972222222222, N
538508, 1495.8555555555556, N
538706, 1496.4055555555556, N
538909, 1496.9694444444444, N
539110, 1497.5277777777778, N
539309, 1498.0805555555555, N
539517, 1498.6583333333333, N
539725, 1499.236111111111, N
539932, 1499.8111111111111, N
540133, 1500.3694444444445, N
540341, 1500.9472222222223, N
540538, 1501.4944444444445, N
540746, 1502.0722222222223, N
540961, 1502.6694444444445, N
541163, 1503.2305555555556, N
541366, 1503.7944444444445, N
541572, 1504.3666666666666, N
541772, 1504.9222222222222, N
541969, 1505.4694444444444, N
542176, 1506.0444444444445, N
542376, 1506.6, N
542580, 1507.1666666666667, N
542787, 1507.7416666666666, N
542989, 1508.3027777777777, N
543195, 1508.875, N
543389, 1509.4138888888888, N
543592, 1509.9777777777779, N
543801, 1510.5583333333334, N
544009, 1511.1361111111112, N
544217, 1511.713888888889, N
544421, 1512.2805555555556, N
544621, 1512.8361111111112, N
544827, 1513.4083333333333, N
545034, 1513.9833333333333, N
545230, 1514.5277777777778, N
545438, 1515.1055555555556, N
545650, 1515.6944444444443, N
545854, 1516.2611111111112, N
546056, 1516.8222222222223, N
546259, 1517.3861111111112, N
546460, 1517.9444444444443, N
546662, 1518.5055555555555, N
546873, 1519.0916666666667, N
547080, 1519.6666666666667, N
547282, 1520.2277777777779, N
547478, 1520.7722222222221, N
547684, 1521.3444444444444, N
547893, 1521.925, N
548088, 1522.4666666666667, N
548295, 1523.0416666666667, N
548508, 1523.6333333333334, N
548720, 1524.2222222222222, N
548918, 1524.7722222222221, N
549124, 1525.3444444444444, N
549331, 1525.9194444444445, N
549535, 1526.486111111111, N
549742, 1527.0611111111111, N
549952, 1527.6444444444444, N
550162, 1528.2277777777779, N
550361, 1528.7805555555556, N
550557, 1529.325, N
550754, 1529.8722222222223, N
550965, 1530.4583333333333, N
551171, 1531.0305555555556, N
551371, 1531.5861111111112, N
551577, 1532.1583333333333, N
551783, 1532.7305555555556, N
551992, 1533.3111111111111, N
552188, 1533.8555555555556, N
552386, 1534.4055555555556, N
552592, 1534.9777777777779, N
552811, 1535.5861111111112, N
553018, 1536.161111111111, N
553219, 1536.7194444444444, N
553414, 1537.2611111111112, N
553617, 1537.825, N
553833, 1538.425, N
554036, 1538.9888888888888, N
554240, 1539.5555555555557, N
554444, 1540.1222222222223, N
554654, 1540.7055555555555, N
554862, 1541.2833333333333, N
555061, 1541.8361111111112, N
555257, 1542.3805555555555, N
555467, 1542.963888888889, N
555681, 1543.5583333333334, N
555879, 1544.1083333333333, N
556083, 1544.675, N
556283, 1545.2305555555556, N
556492, 1545.8111111111111, N
556690, 1546.361111111111, N
556895, 1546.9305555555557, N
557103, 1547.5083333333334, N
557307, 1548.075, N
557521, 1548.6694444444445, N
557727, 1549.2416666666666, N
557928, 1549.8, N
558124, 1550.3444444444444, N
558331, 1550.9194444444445, N
558548, 1551.5222222222221, N
558753, 1552.0916666666667, N
558957, 1552.6583333333333, N
559158, 1553.2166666666667, N
559363, 1553.786111111111, N
559564, 1554.3444444444444, N
559765, 1554.9027777777778, N
559965, 1555.4583333333333, N
560174, 1556.0388888888888, N
560387, 1556.6305555555555, N
560585, 1557.1805555555557, N
560786, 1557.7388888888888, N
560986, 1558.2944444444445, N
561196, 1558.8777777777777, N
561408, 1559.4666666666667, N
561616, 1560.0444444444445, N
561823, 1560.6194444444445, N
562031, 1561.1972222222223, N
562227, 1561.7416666666666, N
562427, 1562.2972222222222, N
562631, 1562.8638888888888, N
562838, 1563.4388888888889, N
563047, 1564.0194444444444, N
563186, 1564.4055555555556, a
563322, 1564.7833333333333, a
563558, 1565.4388888888889, N
563799, 1566.1083333333333, N
563996, 1566.6555555555556, N
564201, 1567.225, N
564414, 1567.8166666666666, N
564624, 1568.4, N
564827, 1568.963888888889, N
565024, 1569.5111111111112, N
565221, 1570.0583333333334, N
565423, 1570.6194444444445, N
565635, 1571.2083333333333, N
565837, 1571.7694444444444, N
566039, 1572.3305555555555, N
566244, 1572.9, N
566454, 1573.4833333333333, N
566654, 1574.0388888888888, N
566857, 1574.6027777777779, N
567055, 1575.1527777777778, N
567267, 1575.7416666666666, N
567483, 1576.3416666666667, N
567683, 1576.8972222222221, N
567883, 1577.4527777777778, N
568084, 1578.0111111111112, N
568287, 1578.575, N
568489, 1579.1361111111112, N
568689, 1579.6916666666666, N
568898, 1580.2722222222221, N
569100, 1580.8333333333333, N
569308, 1581.411111111111, N
569512, 1581.9777777777779, N
569720, 1582.5555555555557, N
569916, 1583.1, N
570118, 1583.661111111111, N
570332, 1584.2555555555555, N
570545, 1584.8472222222222, N
570746, 1585.4055555555556, N
570946, 1585.9611111111112, N
571148, 1586.5222222222221, N
571356, 1587.1, N
571558, 1587.661111111111, N
571760, 1588.2222222222222, N
571973, 1588.8138888888889, N
572164, 1589.3444444444444, F
572376, 1589.9333333333334, N
572580, 1590.5, N
572787, 1591.075, N
572988, 1591.6333333333334, N
573189, 1592.1916666666666, N
573398, 1592.7722222222221, N
573603, 1593.3416666666667, N
573814, 1593.9277777777777, N
574012, 1594.4777777777779, N
574211, 1595.0305555555556, N
574416, 1595.6, N
574623, 1596.175, N
574837, 1596.7694444444444, N
575037, 1597.325, N
575245, 1597.9027777777778, N
575442, 1598.45, N
575648, 1599.0222222222221, N
575854, 1599.5944444444444, N
576060, 1600.1666666666667, N
576267, 1600.7416666666666, N
576467, 1601.2972222222222, N
576678, 1601.8833333333334, N
576883, 1602.4527777777778, N
577082, 1603.0055555555555, N
577280, 1603.5555555555557, F
577485, 1604.125, N
577591, 1604.4194444444445, +
577697, 1604.713888888889, V
577901, 1605.2805555555556, N
578090, 1605.8055555555557, V
578305, 1606.4027777777778, N
578495, 1606.9305555555557, V
578609, 1607.2472222222223, +
578723, 1607.5638888888889, N
578923, 1608.1194444444445, N
579130, 1608.6944444444443, N
579345, 1609.2916666666667, F
579555, 1609.875, N
579751, 1610.4194444444445, F
579948, 1610.9666666666667, N
580154, 1611.5388888888888, F
580366, 1612.1277777777777, N
580562, 1612.6722222222222, F
580766, 1613.2388888888888, N
580973, 1613.8138888888889, V
581182, 1614.3944444444444, N
581388, 1614.9666666666667, F
581581, 1615.5027777777777, N
581781, 1616.0583333333334, F
581998, 1616.661111111111, N
582212, 1617.2555555555555, F
582408, 1617.8, N
582615, 1618.375, V
582816, 1618.9333333333334, N
583016, 1619.4888888888888, V
583225, 1620.0694444444443, N
583424, 1620.6222222222223, F
583629, 1621.1916666666666, N
583838, 1621.7722222222221, V
584049, 1622.3583333333333, N
584244, 1622.9, V
584444, 1623.4555555555555, N
584612, 1623.9222222222222, V
584764, 1624.3444444444444, V
585070, 1625.1944444444443, N
585271, 1625.7527777777777, N
585473, 1626.3138888888889, N
585679, 1626.8861111111112, N
585883, 1627.4527777777778, N
586079, 1627.9972222222223, N
586280, 1628.5555555555557, V
586495, 1629.1527777777778, N
586699, 1629.7194444444444, N
586903, 1630.286111111111, N
587087, 1630.7972222222222, V
587315, 1631.4305555555557, N
587513, 1631.9805555555556, N
587715, 1632.5416666666667, N
587929, 1633.1361111111112, N
588139, 1633.7194444444444, N
588338, 1634.2722222222221, N
588535, 1634.8194444444443, N
588734, 1635.3722222222223, N
588940, 1635.9444444444443, V
589149, 1636.525, N
589342, 1637.0611111111111, N
589544, 1637.6222222222223, N
589735, 1638.1527777777778, V
589963, 1638.786111111111, N
590170, 1639.361111111111, N
590363, 1639.8972222222221, N
590564, 1640.4555555555555, N
590777, 1641.0472222222222, N
590987, 1641.6305555555555, N
591157, 1642.1027777777779, V
591388, 1642.7444444444445, N
591592, 1643.3111111111111, N
591789, 1643.8583333333333, N
591990, 1644.4166666666667, N
592193, 1644.9805555555556, N
592404, 1645.5666666666666, N
592570, 1646.0277777777778, V
592811, 1646.6972222222223, N
593016, 1647.2666666666667, N
593213, 1647.8138888888889, N
593411, 1648.3638888888888, N
593619, 1648.9416666666666, N
593826, 1649.5166666666667, N
594026, 1650.0722222222223, N
594230, 1650.638888888889, N
594432, 1651.2, F
594627, 1651.7416666666666, N
594828, 1652.3, N
595039, 1652.8861111111112, N
595235, 1653.4305555555557, N
595436, 1653.9888888888888, N
595646, 1654.5722222222223, V
595853, 1655.1472222222221, N
596053, 1655.7027777777778, N
596251, 1656.2527777777777, N
596457, 1656.825, V
596667, 1657.4083333333333, N
596875, 1657.986111111111, F
597073, 1658.536111111111, N
597276, 1659.1, F
597481, 1659.6694444444445, N
597686, 1660.2388888888888, F
597886, 1660.7944444444445, N
598082, 1661.338888888889, F
598295, 1661.9305555555557, N
598501, 1662.5027777777777, N
598702, 1663.0611111111111, N
598853, 1663.4805555555556, A
599094, 1664.15, N
599302, 1664.7277777777779, F
599501, 1665.2805555555556, N
599717, 1665.8805555555555, N
599923, 1666.4527777777778, N
600125, 1667.013888888889, N
600325, 1667.5694444444443, N
600533, 1668.1472222222221, N
600734, 1668.7055555555555, N
600936, 1669.2666666666667, N
601139, 1669.8305555555555, N
601350, 1670.4166666666667, N
601561, 1671.0027777777777, N
601760, 1671.5555555555557, N
601965, 1672.125, N
602170, 1672.6944444444443, N
602365, 1673.236111111111, N
602571, 1673.8083333333334, V
602782, 1674.3944444444444, N
602988, 1674.9666666666667, N
603189, 1675.525, N
603363, 1676.0083333333334, V
603580, 1676.611111111111, N
603789, 1677.1916666666666, F
603994, 1677.7611111111112, N
604202, 1678.338888888889, N
604401, 1678.8916666666667, N
604606, 1679.4611111111112, N
604809, 1680.025, N
605020, 1680.611111111111, N
605222, 1681.1722222222222, N
605426, 1681.7388888888888, N
605639, 1682.3305555555555, N
605847, 1682.9083333333333, N
606051, 1683.475, N
606232, 1683.9777777777779, V
606458, 1684.6055555555556, N
606639, 1685.1083333333333, V
606859, 1685.7194444444444, N
607072, 1686.3111111111111, N
607273, 1686.8694444444445, N
607479, 1687.4416666666666, N
607679, 1687.9972222222223, N
607890, 1688.5833333333333, N
608085, 1689.125, N
608291, 1689.6972222222223, N
608501, 1690.2805555555556, N
608704, 1690.8444444444444, F
608909, 1691.4138888888888, N
609098, 1691.9388888888889, V
609323, 1692.5638888888889, N
609521, 1693.1138888888888, N
609730, 1693.6944444444443, N
609910, 1694.1944444444443, V
610138, 1694.8277777777778, N
610344, 1695.4, N
610550, 1695.9722222222222, N
610759, 1696.5527777777777, N
610952, 1697.088888888889, N
611151, 1697.6416666666667, N
611362, 1698.2277777777779, N
611574, 1698.8166666666666, N
611769, 1699.3583333333333, N
611972, 1699.9222222222222, N
612172, 1700.4777777777779, N
612381, 1701.0583333333334, F
612580, 1701.611111111111, N
612759, 1702.1083333333333, V
612987, 1702.7416666666666, N
613202, 1703.338888888889, N
613410, 1703.9166666666667, N
613606, 1704.4611111111112, V
613790, 1704.9722222222222, N
614021, 1705.6138888888888, N
614224, 1706.1777777777777, N
614433, 1706.7583333333334, N
614643, 1707.3416666666667, N
614844, 1707.9, N
615047, 1708.463888888889, N
615251, 1709.0305555555556, N
615447, 1709.575, N
615652, 1710.1444444444444, F
615854, 1710.7055555555555, N
616062, 1711.2833333333333, F
616262, 1711.838888888889, N
616449, 1712.3583333333333, V
616672, 1712.9777777777779, N
616873, 1713.536111111111, V
617073, 1714.0916666666667, N
617283, 1714.675, F
617497, 1715.2694444444444, N
617696, 1715.8222222222223, N
617902, 1716.3944444444444, N
618105, 1716.9583333333333, N
618303, 1717.5083333333334, N
618508, 1718.0777777777778, N
618710, 1718.638888888889, N
618921, 1719.225, N
619122, 1719.7833333333333, N
619329, 1720.3583333333333, F
619534, 1720.9277777777777, N
619735, 1721.486111111111, F
619931, 1722.0305555555556, N
620121, 1722.5583333333334, V
620353, 1723.2027777777778, N
620555, 1723.763888888889, N
620759, 1724.3305555555555, N
620960, 1724.888888888889, N
621166, 1725.4611111111112, N
621368, 1726.0222222222221, N
621565, 1726.5694444444443, N
621772, 1727.1444444444444, N
621984, 1727.7333333333333, N
622192, 1728.3111111111111, N
622390, 1728.861111111111, N
622593, 1729.425, F
622799, 1729.9972222222223, N
622969, 1730.4694444444444, V
623212, 1731.1444444444444, N
623419, 1731.7194444444444, F
623625, 1732.2916666666667, N
623832, 1732.8666666666666, N
624029, 1733.4138888888888, N
624225, 1733.9583333333333, N
624433, 1734.536111111111, N
624636, 1735.1, N
624839, 1735.6638888888888, N
625043, 1736.2305555555556, N
625249, 1736.8027777777777, N
625449, 1737.3583333333333, N
625650, 1737.9166666666667, N
625852, 1738.4777777777779, N
626059, 1739.0527777777777, N
626275, 1739.6527777777778, N
626475, 1740.2083333333333, N
626680, 1740.7777777777778, F
626885, 1741.3472222222222, N
627089, 1741.9138888888888, F
627291, 1742.475, N
627490, 1743.0277777777778, V
627706, 1743.6277777777777, N
627914, 1744.2055555555555, N
628119, 1744.775, N
628324, 1745.3444444444444, N
628524, 1745.9, N
628724, 1746.4555555555555, N
628933, 1747.036111111111, N
629140, 1747.611111111111, N
629348, 1748.1888888888889, N
629557, 1748.7694444444444, N
629750, 1749.3055555555557, N
629957, 1749.8805555555555, N
630161, 1750.4472222222223, N
630316, 1750.8777777777777, A
630563, 1751.5638888888889, N
630775, 1752.1527777777778, N
630982, 1752.7277777777779, N
631182, 1753.2833333333333, N
631393, 1753.8694444444445, N
631594, 1754.4277777777777, N
631795, 1754.986111111111, N
632007, 1755.575, N
632216, 1756.1555555555556, N
632419, 1756.7194444444444, N
632622, 1757.2833333333333, N
632828, 1757.8555555555556, V
633025, 1758.4027777777778, N
633226, 1758.9611111111112, V
633440, 1759.5555555555557, N
633646, 1760.1277777777777, N
633852, 1760.7, N
634057, 1761.2694444444444, N
634264, 1761.8444444444444, N
634458, 1762.3833333333334, N
634662, 1762.95, N
634871, 1763.5305555555556, N
635079, 1764.1083333333333, N
635283, 1764.675, N
635496, 1765.2666666666667, N
635699, 1765.8305555555555, V
635894, 1766.3722222222223, N
636081, 1766.8916666666667, V
636305, 1767.513888888889, N
636519, 1768.1083333333333, N
636722, 1768.6722222222222, N
636925, 1769.236111111111, N
637131, 1769.8083333333334, N
637331, 1770.3638888888888, N
637527, 1770.9083333333333, N
637731, 1771.475, N
637945, 1772.0694444444443, N
638149, 1772.6361111111112, N
638353, 1773.2027777777778, N
638539, 1773.7194444444444, N
638759, 1774.3305555555555, N
638965, 1774.9027777777778, N
639162, 1775.45, N
639370, 1776.0277777777778, V
639583, 1776.6194444444445, N
639795, 1777.2083333333333, F
639994, 1777.7611111111112, N
640200, 1778.3333333333333, F
640401, 1778.8916666666667, N
640604, 1779.4555555555555, N
640812, 1780.0333333333333, N
641026, 1780.6277777777777, N
641232, 1781.2, N
641428, 1781.7444444444445, N
641632, 1782.3111111111111, N
641834, 1782.8722222222223, N
642035, 1783.4305555555557, N
642234, 1783.9833333333333, N
642445, 1784.5694444444443, N
642657, 1785.1583333333333, N
642855, 1785.7083333333333, N
643055, 1786.263888888889, F
643257, 1786.825, N
643430, 1787.3055555555557, V
643670, 1787.9722222222222, N
643881, 1788.5583333333334, F
644087, 1789.1305555555555, N
644295, 1789.7083333333333, N
644490, 1790.25, N
644688, 1790.8, N
644901, 1791.3916666666667, N
645105, 1791.9583333333333, N
645311, 1792.5305555555556, N
645512, 1793.088888888889, N
645722, 1793.6722222222222, N
645924, 1794.2333333333333, N
646120, 1794.7777777777778, N
646318, 1795.3277777777778, N
646529, 1795.9138888888888, N
646741, 1796.5027777777777, N
646939, 1797.0527777777777, N
647147, 1797.6305555555555, N
647347, 1798.1861111111111, N
647546, 1798.7388888888888, F
647748, 1799.3, N
647953, 1799.8694444444445, N
648163, 1800.4527777777778, N
648366, 1801.0166666666667, N
648519, 1801.4416666666666, A
648762, 1802.1166666666666, N
648974, 1802.7055555555555, N
649174, 1803.2611111111112, N
649374, 1803.8166666666666, N
649577, 1804.3805555555555, N
649790, 1804.9722222222222, N
649992, 1805.5333333333333, N
