19, 0.05277777777777778, +
58, 0.16111111111111112, L
346, 0.9611111111111111, L
660, 1.8333333333333333, L
975, 2.7083333333333335, L
1290, 3.5833333333333335, L
1607, 4.463888888888889, L
1905, 5.291666666666667, L
2135, 5.930555555555555, V
2479, 6.886111111111111, L
2757, 7.658333333333333, L
3073, 8.536111111111111, L
3235, 8.98611111111111, V
3694, 10.261111111111111, L
3972, 11.033333333333333, L
4231, 11.752777777777778, L
4494, 12.483333333333333, L
4767, 13.241666666666667, L
5042, 14.005555555555556, L
5321, 14.780555555555555, L
5638, 15.661111111111111, L
5960, 16.555555555555557, L
6229, 17.302777777777777, L
6489, 18.025, L
6751, 18.752777777777776, L
7032, 19.533333333333335, L
7326, 20.35, L
7621, 21.169444444444444, L
7910, 21.97222222222222, L
8210, 22.805555555555557, L
8486, 23.572222222222223, L
8743, 24.28611111111111, L
9012, 25.033333333333335, L
9293, 25.81388888888889, L
9590, 26.63888888888889, L
9900, 27.5, L
10197, 28.325, L
10473, 29.091666666666665, L
10751, 29.863888888888887, L
11018, 30.605555555555554, L
11289, 31.358333333333334, L
11571, 32.141666666666666, L
11864, 32.955555555555556, L
12167, 33.797222222222224, L
12464, 34.62222222222222, L
12666, 35.18333333333333, V
13004, 36.12222222222222, L
13273, 36.86944444444445, L
13556, 37.65555555555556, L
13839, 38.44166666666667, L
14130, 39.25, L
14427, 40.075, L
14714, 40.87222222222222, L
14993, 41.647222222222226, L
15263, 42.397222222222226, L
15528, 43.13333333333333, L
15822, 43.95, L
16130, 44.80555555555556, L
16434, 45.65, L
16731, 46.475, L
17008, 47.24444444444445, L
17278, 47.99444444444445, L
17541, 48.725, L
17810, 49.47222222222222, L
18085, 50.236111111111114, L
18390, 51.083333333333336, L
18695, 51.93055555555556, L
18988, 52.74444444444445, L
19270, 53.52777777777778, L
19542, 54.28333333333333, L
19827, 55.075, L
20117, 55.88055555555555, L
20409, 56.69166666666667, L
20706, 57.516666666666666, L
21013, 58.36944444444445, L
21288, 59.13333333333333, L
21548, 59.855555555555554, L
21809, 60.580555555555556, L
22078, 61.327777777777776, L
22373, 62.147222222222226, L
22679, 62.99722222222222, L
22977, 63.825, L
23259, 64.60833333333333, L
23534, 65.37222222222222, L
23792, 66.08888888888889, L
24044, 66.78888888888889, L
24312, 67.53333333333333, L
24591, 68.30833333333334, L
24897, 69.15833333333333, L
25261, 70.16944444444445, L
25544, 70.95555555555555, L
25807, 71.68611111111112, L
26080, 72.44444444444444, L
26347, 73.18611111111112, L
26617, 73.93611111111112, L
26900, 74.72222222222223, L
27192, 75.53333333333333, L
27496, 76.37777777777778, L
27619, 76.71944444444445, ~
27778, 77.16111111111111, L
27869, 77.41388888888889, ~
28035, 77.875, L
28113, 78.09166666666667, +
28191, 78.30833333333334, V
28573, 79.36944444444444, L
28858, 80.16111111111111, L
29079, 80.775, V
29231, 81.19722222222222, ~
29436, 81.76666666666667, L
29714, 82.53888888888889, L
29808, 82.8, ~
29866, 82.96111111111111, V
30234, 83.98333333333333, L
30478, 84.66111111111111, L
30645, 85.125, V
31003, 86.11944444444444, L
31291, 86.91944444444445, L
31486, 87.46111111111111, V
31665, 87.95833333333333, +
31844, 88.45555555555555, L
32094, 89.15, L
32332, 89.81111111111112, L
32567, 90.46388888888889, L
32813, 91.14722222222223, L
33068, 91.85555555555555, L
33328, 92.57777777777778, L
33538, 93.16111111111111, V
33957, 94.325, L
34218, 95.05, L
34479, 95.775, L
34741, 96.50277777777778, L
35021, 97.28055555555555, L
35304, 98.06666666666666, L
35594, 98.87222222222222, L
35877, 99.65833333333333, L
36171, 100.475, L
36451, 101.25277777777778, L
36715, 101.98611111111111, L
36974, 102.70555555555555, L
37237, 103.43611111111112, L
37523, 104.23055555555555, L
37812, 105.03333333333333, L
38094, 105.81666666666666, L
38360, 106.55555555555556, L
38627, 107.29722222222222, L
38876, 107.9888888888889, L
39125, 108.68055555555556, L
39381, 109.39166666666667, L
39650, 110.13888888888889, L
39936, 110.93333333333334, L
40246, 111.79444444444445, L
40398, 112.21666666666667, V
40814, 113.37222222222222, L
41083, 114.11944444444444, L
41362, 114.89444444444445, L
41644, 115.67777777777778, L
41927, 116.46388888888889, L
42234, 117.31666666666666, L
42388, 117.74444444444444, V
42865, 119.06944444444444, L
43139, 119.83055555555555, L
43409, 120.58055555555555, L
43709, 121.41388888888889, L
44006, 122.2388888888889, L
44312, 123.08888888888889, L
44623, 123.95277777777778, L
44778, 124.38333333333334, V
45214, 125.59444444444445, L
45484, 126.34444444444445, L
45759, 127.10833333333333, L
45897, 127.49166666666666, V
46371, 128.80833333333334, L
46681, 129.66944444444445, L
46986, 130.51666666666668, L
47132, 130.92222222222222, V
47535, 132.04166666666666, L
47806, 132.79444444444445, L
48083, 133.5638888888889, L
48365, 134.34722222222223, L
48657, 135.15833333333333, L
48973, 136.0361111111111, L
49254, 136.81666666666666, L
49508, 137.5222222222222, L
49753, 138.20277777777778, L
50016, 138.93333333333334, L
50211, 139.475, |
50287, 139.6861111111111, L
50581, 140.50277777777777, L
50881, 141.3361111111111, L
51177, 142.15833333333333, L
51472, 142.9777777777778, L
51614, 143.37222222222223, V
52011, 144.475, L
52273, 145.20277777777778, L
52537, 145.9361111111111, L
52826, 146.73888888888888, L
53114, 147.5388888888889, L
53312, 148.0888888888889, V
53667, 149.075, L
53926, 149.79444444444445, L
54186, 150.51666666666668, L
54438, 151.21666666666667, L
54707, 151.9638888888889, L
54989, 152.74722222222223, L
55281, 153.55833333333334, L
55582, 154.39444444444445, L
55869, 155.19166666666666, L
55999, 155.55277777777778, V
56435, 156.76388888888889, L
56722, 157.5611111111111, L
56928, 158.13333333333333, V
57342, 159.28333333333333, L
57641, 160.11388888888888, L
57937, 160.9361111111111, L
58096, 161.37777777777777, V
58244, 161.7888888888889, V
58698, 163.05, L
58990, 163.86111111111111, L
59284, 164.67777777777778, L
59569, 165.46944444444443, L
59856, 166.26666666666668, L
60126, 167.01666666666668, L
60391, 167.75277777777777, L
60657, 168.49166666666667, L
60830, 168.97222222222223, V
61236, 170.1, L
61544, 170.95555555555555, L
61861, 171.8361111111111, L
62098, 172.49444444444444, V
62452, 173.4777777777778, L
62721, 174.225, L
62924, 174.7888888888889, V
63296, 175.82222222222222, L
63579, 176.60833333333332, L
63890, 177.47222222222223, L
64204, 178.34444444444443, L
64489, 179.13611111111112, L
64764, 179.9, L
65036, 180.65555555555557, L
65329, 181.46944444444443, L
65636, 182.32222222222222, L
65950, 183.19444444444446, L
66276, 184.1, L
66592, 184.9777777777778, L
66877, 185.76944444444445, L
67152, 186.53333333333333, L
67434, 187.31666666666666, L
67582, 187.7277777777778, V
68060, 189.05555555555554, L
68365, 189.90277777777777, L
68654, 190.70555555555555, L
68936, 191.48888888888888, L
69200, 192.22222222222223, L
69332, 192.5888888888889, V
69730, 193.69444444444446, L
70009, 194.46944444444443, L
70296, 195.26666666666668, L
70584, 196.06666666666666, L
70852, 196.8111111111111, L
71102, 197.50555555555556, L
71352, 198.2, L
71516, 198.65555555555557, V
71861, 199.61388888888888, L
72119, 200.33055555555555, L
72389, 201.08055555555555, L
72660, 201.83333333333334, L
72925, 202.56944444444446, L
73099, 203.05277777777778, V
73411, 203.91944444444445, L
73645, 204.56944444444446, L
73898, 205.2722222222222, L
74147, 205.9638888888889, L
74407, 206.6861111111111, L
74661, 207.39166666666668, L
74924, 208.12222222222223, L
75174, 208.81666666666666, L
75422, 209.50555555555556, L
75658, 210.1611111111111, L
75897, 210.825, L
76155, 211.54166666666666, L
76338, 212.05, V
76757, 213.2138888888889, L
77048, 214.0222222222222, L
77341, 214.8361111111111, L
77617, 215.6027777777778, L
77886, 216.35, L
78157, 217.1027777777778, L
78383, 217.73055555555555, V
78717, 218.65833333333333, L
79027, 219.51944444444445, L
79327, 220.3527777777778, L
79503, 220.84166666666667, V
79867, 221.8527777777778, L
80121, 222.55833333333334, L
80399, 223.33055555555555, L
80679, 224.10833333333332, L
80827, 224.51944444444445, V
81259, 225.71944444444443, L
81559, 226.55277777777778, L
81833, 227.3138888888889, L
82089, 228.025, L
82347, 228.74166666666667, L
82494, 229.15, V
82906, 230.29444444444445, L
83209, 231.13611111111112, L
83503, 231.95277777777778, L
83780, 232.72222222222223, L
84058, 233.49444444444444, L
84326, 234.23888888888888, L
84595, 234.98611111111111, L
84872, 235.75555555555556, L
85168, 236.57777777777778, L
85483, 237.45277777777778, L
85807, 238.3527777777778, L
86101, 239.16944444444445, L
86240, 239.55555555555554, V
86412, 240.03333333333333, V
86921, 241.44722222222222, L
87216, 242.26666666666668, L
87461, 242.94722222222222, |
87512, 243.0888888888889, L
87804, 243.9, L
88098, 244.71666666666667, L
88377, 245.49166666666667, L
88642, 246.2277777777778, L
88905, 246.95833333333334, L
89194, 247.76111111111112, L
89485, 248.56944444444446, L
89776, 249.37777777777777, L
90061, 250.16944444444445, L
90338, 250.9388888888889, L
90597, 251.65833333333333, L
90855, 252.375, L
91106, 253.07222222222222, L
91176, 253.26666666666668, +
91247, 253.4638888888889, V
91627, 254.51944444444445, L
91913, 255.3138888888889, L
92063, 255.73055555555555, V
92452, 256.81111111111113, L
92701, 257.5027777777778, L
92832, 257.8666666666667, V
93198, 258.8833333333333, L
93462, 259.6166666666667, L
93610, 260.02777777777777, V
93819, 260.60833333333335, +
94028, 261.18888888888887, L
94336, 262.0444444444444, L
94634, 262.8722222222222, L
94896, 263.6, L
95164, 264.34444444444443, L
95434, 265.09444444444443, L
95729, 265.9138888888889, L
96040, 266.77777777777777, L
96349, 267.6361111111111, L
96505, 268.06944444444446, V
96973, 269.36944444444447, L
97255, 270.15277777777777, L
97540, 270.94444444444446, L
97711, 271.4194444444444, V
98166, 272.68333333333334, L
98489, 273.5805555555556, L
98802, 274.45, L
99092, 275.25555555555553, L
99235, 275.65277777777777, V
99667, 276.85277777777776, L
99950, 277.6388888888889, L
100246, 278.4611111111111, L
100545, 279.2916666666667, L
100867, 280.18611111111113, L
101163, 281.0083333333333, L
101441, 281.78055555555557, L
101725, 282.56944444444446, L
102021, 283.39166666666665, L
102320, 284.22222222222223, L
102624, 285.06666666666666, L
102931, 285.9194444444444, L
103242, 286.78333333333336, L
103525, 287.56944444444446, L
103782, 288.28333333333336, L
104049, 289.025, L
104341, 289.8361111111111, L
104635, 290.65277777777777, L
104938, 291.49444444444447, L
105244, 292.34444444444443, L
105528, 293.1333333333333, L
105815, 293.93055555555554, L
106096, 294.7111111111111, L
106382, 295.50555555555553, L
106560, 296.0, V
106750, 296.52777777777777, V
107306, 298.0722222222222, L
107609, 298.9138888888889, L
107790, 299.4166666666667, V
108162, 300.45, L
108447, 301.2416666666667, L
108718, 301.99444444444447, L
108995, 302.7638888888889, L
109287, 303.575, L
109584, 304.4, L
109857, 305.15833333333336, L
110106, 305.85, L
110367, 306.575, L
110637, 307.325, L
110931, 308.14166666666665, L
111241, 309.0027777777778, L
111544, 309.84444444444443, L
111860, 310.72222222222223, L
112157, 311.5472222222222, L
112433, 312.31388888888887, L
112575, 312.7083333333333, V
113050, 314.02777777777777, Q
113293, 314.7027777777778, "
113585, 315.5138888888889, Q
114075, 316.875, L
114360, 317.6666666666667, L
114646, 318.4611111111111, L
114953, 319.31388888888887, L
115274, 320.2055555555556, L
115419, 320.60833333333335, V
115894, 321.9277777777778, L
116196, 322.76666666666665, L
116483, 323.56388888888887, L
116621, 323.9472222222222, V
117028, 325.0777777777778, L
117310, 325.8611111111111, L
117614, 326.7055555555556, L
117908, 327.52222222222224, L
118193, 328.31388888888887, L
118477, 329.10277777777776, L
118753, 329.86944444444447, L
119024, 330.6222222222222, L
119303, 331.39722222222224, L
119477, 331.88055555555553, V
119897, 333.0472222222222, L
120207, 333.90833333333336, L
120509, 334.7472222222222, L
120776, 335.4888888888889, L
121047, 336.2416666666667, L
121325, 337.0138888888889, L
121613, 337.81388888888887, L
121910, 338.6388888888889, L
122207, 339.4638888888889, L
122522, 340.3388888888889, L
122824, 341.1777777777778, L
123097, 341.93611111111113, L
123155, 342.09722222222223, +
123234, 342.31666666666666, V
123408, 342.8, V
123530, 343.1388888888889, V
123977, 344.38055555555553, +
124072, 344.64444444444445, L
124377, 345.4916666666667, L
124673, 346.31388888888887, L
124955, 347.09722222222223, L
125223, 347.84166666666664, L
125305, 348.06944444444446, +
125388, 348.3, V
125748, 349.3, L
126025, 350.06944444444446, L
126229, 350.6361111111111, V
126612, 351.7, L
126899, 352.4972222222222, L
127075, 352.9861111111111, V
127250, 353.47222222222223, +
127426, 353.9611111111111, L
127683, 354.675, L
127947, 355.40833333333336, L
128205, 356.125, L
128482, 356.89444444444445, L
128757, 357.65833333333336, L
128947, 358.18611111111113, V
129334, 359.2611111111111, L
129585, 359.9583333333333, L
129714, 360.31666666666666, V
130130, 361.47222222222223, L
130416, 362.26666666666665, L
130710, 363.0833333333333, L
131000, 363.8888888888889, L
131291, 364.6972222222222, L
131574, 365.48333333333335, L
131856, 366.26666666666665, L
132135, 367.0416666666667, L
132420, 367.8333333333333, L
132752, 368.75555555555553, L
133086, 369.68333333333334, L
133402, 370.56111111111113, L
133702, 371.39444444444445, L
133984, 372.1777777777778, L
134126, 372.5722222222222, V
134606, 373.90555555555557, L
134919, 374.775, L
135267, 375.7416666666667, L
135590, 376.6388888888889, L
135870, 377.4166666666667, L
136140, 378.1666666666667, L
136405, 378.90277777777777, L
136681, 379.6694444444444, L
136962, 380.45, L
137249, 381.2472222222222, L
137536, 382.0444444444444, L
137832, 382.8666666666667, L
138095, 383.59722222222223, L
138344, 384.2888888888889, L
138605, 385.0138888888889, L
138877, 385.76944444444445, L
139179, 386.60833333333335, L
139491, 387.475, L
139798, 388.3277777777778, L
140098, 389.1611111111111, L
140391, 389.975, L
140532, 390.3666666666667, V
140972, 391.5888888888889, L
141280, 392.44444444444446, L
141608, 393.35555555555555, L
141814, 393.9277777777778, V
142251, 395.14166666666665, L
142548, 395.96666666666664, L
142838, 396.77222222222224, L
143134, 397.59444444444443, L
143438, 398.43888888888887, L
143751, 399.30833333333334, L
144079, 400.21944444444443, L
144399, 401.10833333333335, L
144682, 401.89444444444445, L
144819, 402.275, V
145286, 403.5722222222222, L
145600, 404.44444444444446, L
145916, 405.3222222222222, L
146227, 406.18611111111113, L
146527, 407.01944444444445, L
146816, 407.8222222222222, L
147089, 408.5805555555556, L
147372, 409.3666666666667, L
147571, 409.9194444444444, V
148014, 411.15, L
148328, 412.02222222222224, L
148625, 412.84722222222223, L
148781, 413.28055555555557, V
149183, 414.39722222222224, L
149469, 415.19166666666666, L
149751, 415.975, L
150041, 416.78055555555557, L
150364, 417.6777777777778, L
150677, 418.5472222222222, L
150966, 419.35, L
151250, 420.1388888888889, L
151540, 420.94444444444446, L
151848, 421.8, L
152164, 422.6777777777778, L
152468, 423.52222222222224, L
152650, 424.02777777777777, |
152789, 424.4138888888889, L
153086, 425.2388888888889, L
153232, 425.64444444444445, V
153641, 426.78055555555557, L
153928, 427.5777777777778, L
154222, 428.39444444444445, L
154529, 429.2472222222222, L
154825, 430.06944444444446, L
155099, 430.8305555555556, L
155363, 431.56388888888887, L
155617, 432.26944444444445, L
155867, 432.9638888888889, L
156035, 433.43055555555554, V
156372, 434.3666666666667, L
156632, 435.0888888888889, L
156908, 435.85555555555555, L
157188, 436.6333333333333, L
157447, 437.35277777777776, L
157695, 438.0416666666667, L
157962, 438.78333333333336, L
158244, 439.56666666666666, L
158537, 440.38055555555553, L
158843, 441.23055555555555, L
159155, 442.09722222222223, L
159465, 442.9583333333333, L
159614, 443.3722222222222, V
160047, 444.575, L
160343, 445.39722222222224, L
160663, 446.2861111111111, L
160845, 446.7916666666667, V
161291, 448.03055555555557, L
161592, 448.8666666666667, L
161872, 449.64444444444445, L
162138, 450.3833333333333, L
162401, 451.1138888888889, L
162670, 451.8611111111111, L
162873, 452.425, V
163303, 453.61944444444447, L
163621, 454.5027777777778, L
163925, 455.34722222222223, L
164210, 456.1388888888889, L
164496, 456.93333333333334, L
164799, 457.775, L
164956, 458.2111111111111, V
165412, 459.47777777777776, L
165739, 460.3861111111111, L
166033, 461.2027777777778, L
166293, 461.925, L
166557, 462.65833333333336, L
166720, 463.1111111111111, V
167129, 464.2472222222222, L
167441, 465.1138888888889, L
167736, 465.93333333333334, L
167898, 466.3833333333333, |
168034, 466.7611111111111, L
168309, 467.525, L
168575, 468.2638888888889, L
168740, 468.72222222222223, V
169123, 469.7861111111111, L
169413, 470.59166666666664, L
169712, 471.4222222222222, L
170001, 472.225, L
170268, 472.96666666666664, L
170526, 473.68333333333334, L
170777, 474.38055555555553, L
171035, 475.09722222222223, L
171292, 475.81111111111113, L
171484, 476.34444444444443, V
171847, 477.35277777777776, L
172139, 478.1638888888889, L
172425, 478.9583333333333, L
172685, 479.68055555555554, L
172819, 480.0527777777778, V
173230, 481.19444444444446, L
173507, 481.9638888888889, L
173798, 482.77222222222224, L
174098, 483.60555555555555, L
174399, 484.44166666666666, L
174690, 485.25, L
174963, 486.0083333333333, L
175229, 486.7472222222222, L
175523, 487.56388888888887, L
175842, 488.45, L
176161, 489.3361111111111, L
176470, 490.19444444444446, L
176786, 491.0722222222222, L
177079, 491.8861111111111, L
177374, 492.7055555555556, L
177676, 493.5444444444444, L
177988, 494.4111111111111, L
178155, 494.875, V
178655, 496.2638888888889, L
178855, 496.81944444444446, V
179230, 497.8611111111111, L
179500, 498.6111111111111, L
179777, 499.38055555555553, L
180058, 500.1611111111111, L
180342, 500.95, L
180640, 501.77777777777777, L
180809, 502.2472222222222, |
180933, 502.59166666666664, L
181208, 503.35555555555555, L
181348, 503.74444444444447, V
181730, 504.80555555555554, L
182004, 505.56666666666666, L
182290, 506.3611111111111, L
182571, 507.14166666666665, L
182844, 507.9, L
183124, 508.6777777777778, L
183386, 509.40555555555557, L
183634, 510.09444444444443, L
183873, 510.7583333333333, L
184047, 511.2416666666667, V
184389, 512.1916666666667, L
184667, 512.9638888888888, L
184942, 513.7277777777778, L
185210, 514.4722222222222, L
185464, 515.1777777777778, L
185720, 515.8888888888889, L
185966, 516.5722222222222, L
186228, 517.3, L
186505, 518.0694444444445, L
186796, 518.8777777777777, L
187107, 519.7416666666667, L
187420, 520.6111111111111, L
187699, 521.3861111111111, L
187965, 522.125, L
188246, 522.9055555555556, L
188521, 523.6694444444445, L
188802, 524.45, L
189088, 525.2444444444444, L
189372, 526.0333333333333, L
189651, 526.8083333333333, L
189918, 527.55, L
190163, 528.2305555555556, L
190323, 528.675, V
190674, 529.65, L
190957, 530.4361111111111, L
191239, 531.2194444444444, L
191514, 531.9833333333333, L
191786, 532.7388888888889, L
191950, 533.1944444444445, V
192300, 534.1666666666666, L
192556, 534.8777777777777, L
192822, 535.6166666666667, L
193092, 536.3666666666667, L
193395, 537.2083333333334, L
193577, 537.7138888888888, V
193986, 538.85, L
194255, 539.5972222222222, L
194523, 540.3416666666667, L
194800, 541.1111111111111, L
195090, 541.9166666666666, L
195178, 542.1611111111112, +
195266, 542.4055555555556, V
195671, 543.5305555555556, L
195989, 544.4138888888889, L
196175, 544.9305555555555, V
196534, 545.9277777777778, L
196795, 546.6527777777778, L
196970, 547.1388888888889, V
197344, 548.1777777777778, L
197626, 548.9611111111111, L
197819, 549.4972222222223, V
197999, 549.9972222222223, +
198179, 550.4972222222223, L
198452, 551.2555555555556, L
198702, 551.95, L
198943, 552.6194444444444, L
199194, 553.3166666666667, L
199370, 553.8055555555555, V
199724, 554.7888888888889, L
200005, 555.5694444444445, L
200274, 556.3166666666667, L
200523, 557.0083333333333, L
200764, 557.6777777777778, L
200935, 558.1527777777778, V
201266, 559.0722222222222, L
201511, 559.7527777777777, L
201776, 560.4888888888889, L
202044, 561.2333333333333, L
202324, 562.0111111111111, L
202519, 562.5527777777778, V
202863, 563.5083333333333, L
203108, 564.1888888888889, L
203247, 564.575, V
203653, 565.7027777777778, L
203936, 566.4888888888889, L
204225, 567.2916666666666, L
204517, 568.1027777777778, L
204810, 568.9166666666666, L
205078, 569.6611111111112, L
205335, 570.375, L
205591, 571.0861111111111, L
205871, 571.8638888888889, L
206168, 572.6888888888889, L
206470, 573.5277777777778, L
206752, 574.3111111111111, L
207022, 575.0611111111111, L
207276, 575.7666666666667, L
207526, 576.4611111111111, L
207774, 577.15, L
208025, 577.8472222222222, L
208292, 578.5888888888888, L
208580, 579.3888888888889, L
208856, 580.1555555555556, L
209110, 580.8611111111111, L
209351, 581.5305555555556, L
209581, 582.1694444444445, L
209822, 582.8388888888888, L
210086, 583.5722222222222, L
210344, 584.2888888888889, L
210607, 585.0194444444444, L
210893, 585.8138888888889, L
211184, 586.6222222222223, L
211450, 587.3611111111111, L
211697, 588.0472222222222, L
211958, 588.7722222222222, L
212226, 589.5166666666667, L
212397, 589.9916666666667, V
212826, 591.1833333333333, L
213107, 591.9638888888888, L
213412, 592.8111111111111, L
213690, 593.5833333333334, L
213951, 594.3083333333333, L
214221, 595.0583333333333, L
214502, 595.8388888888888, L
214803, 596.675, L
215115, 597.5416666666666, L
215411, 598.3638888888889, L
215689, 599.1361111111111, L
215968, 599.9111111111112, L
216242, 600.6722222222222, L
216515, 601.4305555555555, L
216798, 602.2166666666667, L
217091, 603.0305555555556, L
217391, 603.8638888888889, L
217692, 604.7, L
217967, 605.4638888888888, L
218226, 606.1833333333333, L
218509, 606.9694444444444, L
218710, 607.5277777777778, V
219087, 608.575, L
219383, 609.3972222222222, L
219675, 610.2083333333334, L
219968, 611.0222222222222, L
220237, 611.7694444444444, L
220501, 612.5027777777777, L
220776, 613.2666666666667, L
221077, 614.1027777777778, L
221388, 614.9666666666667, L
221686, 615.7944444444445, L
221994, 616.65, L
222286, 617.4611111111111, L
222570, 618.25, L
222856, 619.0444444444445, L
223147, 619.8527777777778, L
223463, 620.7305555555556, L
223628, 621.1888888888889, V
224117, 622.5472222222222, L
224414, 623.3722222222223, L
224690, 624.1388888888889, L
224981, 624.9472222222222, L
225279, 625.775, L
225428, 626.1888888888889, V
225908, 627.5222222222222, L
226234, 628.4277777777778, L
226529, 629.2472222222223, L
226665, 629.625, V
227094, 630.8166666666667, L
227376, 631.6, L
227692, 632.4777777777778, L
227997, 633.325, L
228309, 634.1916666666667, L
228617, 635.0472222222222, L
228900, 635.8333333333334, L
229180, 636.6111111111111, L
229463, 637.3972222222222, L
229765, 638.2361111111111, L
230080, 639.1111111111111, L
230403, 640.0083333333333, L
230708, 640.8555555555556, L
230990, 641.6388888888889, L
231280, 642.4444444444445, L
231418, 642.8277777777778, V
231861, 644.0583333333333, L
232167, 644.9083333333333, L
232460, 645.7222222222222, L
232551, 645.975, +
232643, 646.2305555555556, V
233054, 647.3722222222223, L
233312, 648.0888888888888, L
233503, 648.6194444444444, V
233868, 649.6333333333333, L
234154, 650.4277777777778, L
234340, 650.9444444444445, V
234742, 652.0611111111111, L
235022, 652.8388888888888, L
235192, 653.3111111111111, V
235560, 654.3333333333334, L
235813, 655.0361111111112, L
235979, 655.4972222222223, V
236178, 656.05, +
236377, 656.6027777777778, L
236673, 657.425, L
236959, 658.2194444444444, L
237240, 659.0, L
237498, 659.7166666666667, L
237757, 660.4361111111111, L
238024, 661.1777777777778, L
238289, 661.9138888888889, L
238578, 662.7166666666667, L
238779, 663.275, V
239216, 664.4888888888889, L
239491, 665.2527777777777, L
239768, 666.0222222222222, L
240040, 666.7777777777778, L
240337, 667.6027777777778, L
240637, 668.4361111111111, L
240946, 669.2944444444445, L
241273, 670.2027777777778, L
241590, 671.0833333333334, L
241878, 671.8833333333333, L
242015, 672.2638888888889, V
242482, 673.5611111111111, L
242810, 674.4722222222222, L
243148, 675.4111111111112, L
243476, 676.3222222222222, L
243804, 677.2333333333333, L
244100, 678.0555555555555, L
244388, 678.8555555555556, L
244687, 679.6861111111111, L
244832, 680.0888888888888, V
245346, 681.5166666666667, L
245662, 682.3944444444444, L
245952, 683.2, L
246228, 683.9666666666667, L
246503, 684.7305555555556, L
246788, 685.5222222222222, L
247079, 686.3305555555555, L
247240, 686.7777777777778, V
247709, 688.0805555555555, L
248013, 688.925, L
248293, 689.7027777777778, L
248562, 690.45, L
248854, 691.2611111111111, L
249022, 691.7277777777778, V
249440, 692.8888888888889, L
249731, 693.6972222222222, L
250028, 694.5222222222222, L
250310, 695.3055555555555, L
250573, 696.0361111111112, L
250832, 696.7555555555556, L
251106, 697.5166666666667, L
251412, 698.3666666666667, L
251716, 699.2111111111111, L
252008, 700.0222222222222, L
252311, 700.8638888888889, L
252590, 701.6388888888889, L
252874, 702.4277777777778, L
253014, 702.8166666666667, V
253451, 704.0305555555556, L
253766, 704.9055555555556, L
254082, 705.7833333333333, L
254245, 706.2361111111111, V
254664, 707.4, L
254932, 708.1444444444444, L
255201, 708.8916666666667, L
255481, 709.6694444444445, L
255754, 710.4277777777778, L
255899, 710.8305555555555, V
256329, 712.025, L
256616, 712.8222222222222, L
256875, 713.5416666666666, L
257128, 714.2444444444444, L
257389, 714.9694444444444, L
257659, 715.7194444444444, L
257952, 716.5333333333333, L
258244, 717.3444444444444, L
258534, 718.15, L
258691, 718.5861111111111, V
259125, 719.7916666666666, L
259393, 720.5361111111112, L
259669, 721.3027777777778, L
259954, 722.0944444444444, L
260256, 722.9333333333333, L
260566, 723.7944444444445, L
260870, 724.6388888888889, L
261153, 725.425, L
261438, 726.2166666666667, L
261715, 726.9861111111111, L
261999, 727.775, L
262296, 728.6, L
262598, 729.4388888888889, L
262911, 730.3083333333333, L
263205, 731.125, L
263471, 731.8638888888889, L
263735, 732.5972222222222, L
263882, 733.0055555555556, V
264313, 734.2027777777778, L
264599, 734.9972222222223, L
264889, 735.8027777777778, L
265180, 736.6111111111111, L
265462, 737.3944444444444, L
265726, 738.1277777777777, L
265993, 738.8694444444444, L
266269, 739.6361111111111, L
266574, 740.4833333333333, L
266891, 741.3638888888889, L
267194, 742.2055555555555, L
267500, 743.0555555555555, L
267781, 743.8361111111111, L
268065, 744.625, L
268357, 745.4361111111111, L
268650, 746.25, L
268975, 747.1527777777778, L
269305, 748.0694444444445, L
269620, 748.9444444444445, L
269918, 749.7722222222222, L
270201, 750.5583333333333, L
270511, 751.4194444444445, L
270830, 752.3055555555555, L
271152, 753.2, L
271481, 754.1138888888889, L
271815, 755.0416666666666, L
272108, 755.8555555555556, L
272399, 756.6638888888889, L
272703, 757.5083333333333, L
272901, 758.0583333333333, V
273377, 759.3805555555556, L
273695, 760.2638888888889, L
274011, 761.1416666666667, L
274306, 761.9611111111111, L
274448, 762.3555555555556, V
274874, 763.5388888888889, L
275171, 764.3638888888889, L
275472, 765.2, L
275778, 766.05, L
276066, 766.85, L
276331, 767.5861111111111, L
276606, 768.35, L
276881, 769.1138888888889, L
277147, 769.8527777777778, L
277439, 770.6638888888889, L
277733, 771.4805555555556, L
277894, 771.9277777777778, V
278326, 773.1277777777777, L
278588, 773.8555555555556, L
278848, 774.5777777777778, L
279132, 775.3666666666667, L
279415, 776.1527777777778, L
279700, 776.9444444444445, L
279997, 777.7694444444444, L
280292, 778.5888888888888, L
280585, 779.4027777777778, L
280722, 779.7833333333333, V
281134, 780.9277777777778, L
281422, 781.7277777777778, L
281607, 782.2416666666667, V
282045, 783.4583333333334, L
282338, 784.2722222222222, L
282628, 785.0777777777778, L
282908, 785.8555555555556, L
283183, 786.6194444444444, L
283468, 787.4111111111112, L
283607, 787.7972222222222, V
284096, 789.1555555555556, L
284410, 790.0277777777778, L
284717, 790.8805555555556, L
285001, 791.6694444444445, L
285280, 792.4444444444445, L
285446, 792.9055555555556, V
285879, 794.1083333333333, L
286176, 794.9333333333333, L
286506, 795.85, L
286821, 796.725, L
287109, 797.525, L
287391, 798.3083333333333, L
287676, 799.1, L
287853, 799.5916666666667, V
288318, 800.8833333333333, L
288630, 801.75, L
288948, 802.6333333333333, L
289247, 803.4638888888888, L
289527, 804.2416666666667, L
289803, 805.0083333333333, L
290094, 805.8166666666667, L
290250, 806.25, V
290724, 807.5666666666667, L
291028, 808.4111111111112, L
291307, 809.1861111111111, L
291588, 809.9666666666667, L
291854, 810.7055555555555, L
291996, 811.1, V
292393, 812.2027777777778, L
292672, 812.9777777777778, L
292959, 813.775, L
293243, 814.5638888888889, L
293509, 815.3027777777778, L
293763, 816.0083333333333, L
294026, 816.7388888888889, L
294302, 817.5055555555556, L
294580, 818.2777777777778, L
294866, 819.0722222222222, L
295162, 819.8944444444444, L
295459, 820.7194444444444, L
295755, 821.5416666666666, L
295893, 821.925, V
296328, 823.1333333333333, L
296630, 823.9722222222222, L
296942, 824.8388888888888, L
297241, 825.6694444444445, L
297549, 826.525, L
297717, 826.9916666666667, V
298143, 828.175, L
298427, 828.9638888888888, L
298713, 829.7583333333333, L
299019, 830.6083333333333, L
299186, 831.0722222222222, V
299662, 832.3944444444444, L
299947, 833.1861111111111, L
300228, 833.9666666666667, L
300510, 834.75, L
300800, 835.5555555555555, L
301096, 836.3777777777777, L
301397, 837.2138888888888, L
301494, 837.4833333333333, +
301557, 837.6583333333333, V
301770, 838.25, V
301911, 838.6416666666667, V
302310, 839.75, +
302402, 840.0055555555556, L
302670, 840.75, L
302948, 841.5222222222222, L
303238, 842.3277777777778, L
303523, 843.1194444444444, L
303713, 843.6472222222222, V
304094, 844.7055555555555, L
304362, 845.45, L
304626, 846.1833333333333, L
304875, 846.875, L
305140, 847.6111111111111, L
305409, 848.3583333333333, L
305702, 849.1722222222222, L
305992, 849.9777777777778, L
306280, 850.7777777777778, L
306559, 851.5527777777778, L
306704, 851.9555555555555, V
306879, 852.4416666666667, V
307342, 853.7277777777778, L
307637, 854.5472222222222, L
307939, 855.3861111111111, L
308254, 856.2611111111111, L
308546, 857.0722222222222, L
308819, 857.8305555555555, L
309012, 858.3666666666667, V
309422, 859.5055555555556, L
309719, 860.3305555555555, L
310037, 861.2138888888888, L
310351, 862.0861111111111, L
310511, 862.5305555555556, V
310977, 863.825, L
311258, 864.6055555555556, L
311558, 865.4388888888889, L
311876, 866.3222222222222, L
312196, 867.2111111111111, L
312511, 868.0861111111111, L
312825, 868.9583333333334, L
313123, 869.7861111111112, L
313412, 870.5888888888888, L
313706, 871.4055555555556, L
313849, 871.8027777777778, V
314343, 873.175, L
314651, 874.0305555555556, L
314938, 874.8277777777778, L
315207, 875.575, L
315477, 876.325, L
315756, 877.1, L
316037, 877.8805555555556, L
316214, 878.3722222222223, V
316643, 879.5638888888889, L
316950, 880.4166666666666, L
317130, 880.9166666666666, V
317498, 881.9388888888889, L
317760, 882.6666666666666, L
318032, 883.4222222222222, L
318304, 884.1777777777778, L
318588, 884.9666666666667, L
318873, 885.7583333333333, L
319172, 886.5888888888888, L
319447, 887.3527777777778, L
319703, 888.0638888888889, L
319839, 888.4416666666667, V
320236, 889.5444444444445, L
320524, 890.3444444444444, L
320820, 891.1666666666666, L
321116, 891.9888888888889, L
321412, 892.8111111111111, L
321702, 893.6166666666667, L
321984, 894.4, L
322275, 895.2083333333334, L
322580, 896.0555555555555, L
322898, 896.9388888888889, L
323237, 897.8805555555556, L
323561, 898.7805555555556, L
323863, 899.6194444444444, L
324030, 900.0833333333334, V
324503, 901.3972222222222, L
324814, 902.2611111111111, L
325146, 903.1833333333333, L
325341, 903.725, V
325824, 905.0666666666667, L
326116, 905.8777777777777, L
326402, 906.6722222222222, L
326721, 907.5583333333333, L
327033, 908.425, L
327342, 909.2833333333333, L
327660, 910.1666666666666, L
327806, 910.5722222222222, V
328260, 911.8333333333334, L
328533, 912.5916666666667, L
328808, 913.3555555555556, L
328961, 913.7805555555556, V
329422, 915.0611111111111, L
329714, 915.8722222222223, L
330008, 916.6888888888889, L
330291, 917.475, L
330564, 918.2333333333333, L
330843, 919.0083333333333, L
331118, 919.7722222222222, L
331390, 920.5277777777778, L
331681, 921.3361111111111, L
331972, 922.1444444444444, L
332246, 922.9055555555556, L
332504, 923.6222222222223, L
332762, 924.3388888888888, L
333022, 925.0611111111111, L
333303, 925.8416666666667, L
333595, 926.6527777777778, L
333749, 927.0805555555555, V
334200, 928.3333333333334, L
334496, 929.1555555555556, L
334772, 929.9222222222222, L
335044, 930.6777777777778, L
335333, 931.4805555555556, L
335535, 932.0416666666666, V
335952, 933.2, L
336265, 934.0694444444445, L
336567, 934.9083333333333, L
336869, 935.7472222222223, L
337157, 936.5472222222222, L
337447, 937.3527777777778, L
337757, 938.2138888888888, L
338084, 939.1222222222223, L
338427, 940.075, L
338610, 940.5833333333334, V
339072, 941.8666666666667, L
339382, 942.7277777777778, L
339700, 943.6111111111111, L
340009, 944.4694444444444, L
340191, 944.975, V
340687, 946.3527777777778, L
341006, 947.2388888888889, L
341293, 948.0361111111112, L
341577, 948.825, L
341879, 949.6638888888889, L
342182, 950.5055555555556, L
342485, 951.3472222222222, L
342793, 952.2027777777778, L
343094, 953.0388888888889, L
343385, 953.8472222222222, L
343657, 954.6027777777778, L
343933, 955.3694444444444, L
344118, 955.8833333333333, V
344560, 957.1111111111111, L
344865, 957.9583333333334, L
345163, 958.7861111111112, L
345433, 959.5361111111112, L
345698, 960.2722222222222, L
345968, 961.0222222222222, L
346241, 961.7805555555556, L
346523, 962.5638888888889, L
346837, 963.4361111111111, L
347139, 964.275, L
347422, 965.0611111111111, L
347693, 965.8138888888889, L
347953, 966.5361111111112, L
348101, 966.9472222222222, V
348538, 968.1611111111112, L
348832, 968.9777777777778, L
349137, 969.825, L
349456, 970.7111111111111, L
349741, 971.5027777777777, L
350006, 972.2388888888889, L
350285, 973.0138888888889, L
350576, 973.8222222222222, L
350894, 974.7055555555555, L
351049, 975.1361111111111, V
351548, 976.5222222222222, L
351860, 977.3888888888889, L
352152, 978.2, L
352429, 978.9694444444444, L
352729, 979.8027777777778, L
353047, 980.6861111111111, L
353376, 981.6, L
353704, 982.5111111111111, L
354004, 983.3444444444444, L
354151, 983.7527777777777, V
354604, 985.0111111111111, L
354887, 985.7972222222222, L
355193, 986.6472222222222, L
355341, 987.0583333333333, V
355531, 987.5861111111111, V
356057, 989.0472222222222, L
356332, 989.8111111111111, L
356598, 990.55, L
356868, 991.3, L
357140, 992.0555555555555, L
357414, 992.8166666666667, L
357694, 993.5944444444444, L
357974, 994.3722222222223, L
358259, 995.1638888888889, L
358519, 995.8861111111111, L
358774, 996.5944444444444, L
359038, 997.3277777777778, L
359328, 998.1333333333333, L
359620, 998.9444444444445, L
359907, 999.7416666666667, L
360202, 1000.5611111111111, L
360484, 1001.3444444444444, L
360761, 1002.1138888888889, L
361034, 1002.8722222222223, L
361316, 1003.6555555555556, L
361617, 1004.4916666666667, L
361790, 1004.9722222222222, V
362278, 1006.3277777777778, L
362573, 1007.1472222222222, L
362858, 1007.9388888888889, L
363135, 1008.7083333333334, L
363436, 1009.5444444444445, L
363735, 1010.375, L
364037, 1011.2138888888888, L
364368, 1012.1333333333333, L
364682, 1013.0055555555556, L
364964, 1013.7888888888889, L
365248, 1014.5777777777778, L
365533, 1015.3694444444444, L
365836, 1016.2111111111111, L
366024, 1016.7333333333333, V
366474, 1017.9833333333333, L
366775, 1018.8194444444445, L
366955, 1019.3194444444445, V
367349, 1020.4138888888889, L
367614, 1021.15, L
367896, 1021.9333333333333, L
368180, 1022.7222222222222, L
368488, 1023.5777777777778, L
368650, 1024.0277777777778, V
369096, 1025.2666666666667, L
369372, 1026.0333333333333, L
369650, 1026.8055555555557, L
369929, 1027.5805555555555, L
370205, 1028.3472222222222, L
370387, 1028.8527777777779, V
370800, 1030.0, L
371095, 1030.8194444444443, L
371367, 1031.575, L
371620, 1032.2777777777778, L
371888, 1033.0222222222221, L
372168, 1033.8, L
372449, 1034.5805555555555, L
372734, 1035.3722222222223, L
373031, 1036.1972222222223, L
373321, 1037.0027777777777, L
373600, 1037.7777777777778, L
373868, 1038.5222222222221, L
374147, 1039.2972222222222, L
374291, 1039.6972222222223, V
374778, 1041.05, L
375088, 1041.911111111111, L
375405, 1042.7916666666667, L
375699, 1043.6083333333333, L
375998, 1044.4388888888889, L
376185, 1044.9583333333333, V
376627, 1046.1861111111111, L
376955, 1047.0972222222222, L
377301, 1048.0583333333334, L
377623, 1048.9527777777778, L
377923, 1049.786111111111, L
378217, 1050.6027777777779, L
378538, 1051.4944444444445, L
378860, 1052.388888888889, L
379186, 1053.2944444444445, L
379541, 1054.2805555555556, L
379793, 1054.9805555555556, V
380184, 1056.0666666666666, L
380485, 1056.9027777777778, L
380784, 1057.7333333333333, L
381098, 1058.6055555555556, L
381416, 1059.4888888888888, L
381566, 1059.9055555555556, V
382054, 1061.2611111111112, L
382335, 1062.0416666666667, L
382599, 1062.775, L
382878, 1063.55, L
383166, 1064.35, L
383473, 1065.2027777777778, L
383785, 1066.0694444444443, L
384086, 1066.9055555555556, L
384367, 1067.6861111111111, L
384642, 1068.45, L
384905, 1069.1805555555557, L
385176, 1069.9333333333334, L
385461, 1070.725, L
385748, 1071.5222222222221, L
386045, 1072.3472222222222, L
386323, 1073.1194444444445, L
386569, 1073.8027777777777, L
386817, 1074.4916666666666, L
387082, 1075.2277777777779, L
387346, 1075.9611111111112, L
387600, 1076.6666666666667, L
387866, 1077.4055555555556, L
388130, 1078.138888888889, L
388394, 1078.8722222222223, L
388646, 1079.5722222222223, L
388884, 1080.2333333333333, L
389115, 1080.875, L
389373, 1081.5916666666667, L
389644, 1082.3444444444444, L
389927, 1083.1305555555555, L
390202, 1083.8944444444444, L
390487, 1084.6861111111111, L
390755, 1085.4305555555557, L
391018, 1086.161111111111, L
391265, 1086.8472222222222, L
391520, 1087.5555555555557, L
391789, 1088.3027777777777, L
392081, 1089.1138888888888, L
392372, 1089.9222222222222, L
392653, 1090.7027777777778, L
392926, 1091.4611111111112, L
393189, 1092.1916666666666, L
393392, 1092.7555555555555, V
393743, 1093.7305555555556, L
394021, 1094.5027777777777, L
394319, 1095.3305555555555, L
394629, 1096.1916666666666, L
394929, 1097.025, L
395204, 1097.7888888888888, L
395343, 1098.175, V
395778, 1099.3833333333334, L
396080, 1100.2222222222222, L
396384, 1101.0666666666666, L
396686, 1101.9055555555556, L
397009, 1102.8027777777777, L
397163, 1103.2305555555556, V
397588, 1104.411111111111, L
397859, 1105.1638888888888, L
398150, 1105.9722222222222, L
398468, 1106.8555555555556, L
398778, 1107.7166666666667, L
398868, 1107.9666666666667, +
398958, 1108.2166666666667, V
399400, 1109.4444444444443, L
399683, 1110.2305555555556, L
399850, 1110.6944444444443, V
400253, 1111.8138888888889, L
400542, 1112.6166666666666, L
400741, 1113.1694444444445, V
400950, 1113.75, +
401159, 1114.3305555555555, L
401442, 1115.1166666666666, L
401704, 1115.8444444444444, L
401972, 1116.588888888889, L
402247, 1117.3527777777779, L
402397, 1117.7694444444444, V
402820, 1118.9444444444443, L
403108, 1119.7444444444445, L
403407, 1120.575, L
403697, 1121.3805555555555, L
403960, 1122.111111111111, L
404216, 1122.8222222222223, L
404501, 1123.6138888888888, L
404802, 1124.45, L
404990, 1124.9722222222222, V
405412, 1126.1444444444444, L
405711, 1126.975, L
405999, 1127.775, L
406276, 1128.5444444444445, L
406566, 1129.35, L
406855, 1130.1527777777778, L
407045, 1130.6805555555557, V
407517, 1131.9916666666666, L
407819, 1132.8305555555555, L
408120, 1133.6666666666667, L
408405, 1134.4583333333333, L
408704, 1135.2888888888888, L
409011, 1136.1416666666667, L
409322, 1137.0055555555555, L
409659, 1137.9416666666666, L
409992, 1138.8666666666666, L
410297, 1139.713888888889, L
410599, 1140.5527777777777, L
410911, 1141.4194444444445, L
411240, 1142.3333333333333, L
411575, 1143.263888888889, L
411905, 1144.1805555555557, L
412247, 1145.1305555555555, L
412456, 1145.7111111111112, V
412605, 1146.125, V
413090, 1147.4722222222222, L
413396, 1148.3222222222223, L
413717, 1149.213888888889, L
414015, 1150.0416666666667, L
414309, 1150.8583333333333, L
414597, 1151.6583333333333, L
414869, 1152.4138888888888, L
415135, 1153.1527777777778, L
415402, 1153.8944444444444, L
415682, 1154.6722222222222, L
415973, 1155.4805555555556, L
416265, 1156.2916666666667, L
416536, 1157.0444444444445, L
416787, 1157.7416666666666, L
417050, 1158.4722222222222, L
417219, 1158.9416666666666, V
417587, 1159.963888888889, L
417869, 1160.7472222222223, L
418159, 1161.5527777777777, L
418452, 1162.3666666666666, L
418746, 1163.1833333333334, L
418912, 1163.6444444444444, V
419268, 1164.6333333333334, L
419554, 1165.4277777777777, L
419843, 1166.2305555555556, L
420137, 1167.0472222222222, L
420432, 1167.8666666666666, L
420716, 1168.6555555555556, L
420988, 1169.411111111111, L
421249, 1170.1361111111112, L
421502, 1170.838888888889, L
421757, 1171.5472222222222, L
422036, 1172.3222222222223, L
422318, 1173.1055555555556, L
422590, 1173.861111111111, L
422856, 1174.6, L
423116, 1175.3222222222223, L
423360, 1176.0, L
423601, 1176.6694444444445, L
423845, 1177.3472222222222, L
424058, 1177.9388888888889, V
424336, 1178.7111111111112, L
424613, 1179.4805555555556, L
424877, 1180.213888888889, L
425124, 1180.9, L
425363, 1181.5638888888889, L
425596, 1182.2111111111112, L
425829, 1182.8583333333333, L
426007, 1183.3527777777779, V
426326, 1184.2388888888888, L
426581, 1184.9472222222223, L
426847, 1185.6861111111111, L
427130, 1186.4722222222222, L
427395, 1187.2083333333333, L
427642, 1187.8944444444444, L
427815, 1188.375, V
428147, 1189.2972222222222, L
428416, 1190.0444444444445, L
428698, 1190.8277777777778, L
428977, 1191.6027777777779, L
429257, 1192.3805555555555, L
429545, 1193.1805555555557, L
429716, 1193.6555555555556, V
430110, 1194.75, L
430382, 1195.5055555555555, L
430676, 1196.3222222222223, L
430838, 1196.7722222222221, V
431320, 1198.111111111111, L
431631, 1198.975, L
431925, 1199.7916666666667, L
432215, 1200.5972222222222, L
432515, 1201.4305555555557, L
432711, 1201.975, V
433134, 1203.15, L
433460, 1204.0555555555557, L
433779, 1204.9416666666666, L
434073, 1205.7583333333334, L
434351, 1206.5305555555556, L
434657, 1207.3805555555555, L
434823, 1207.8416666666667, V
435279, 1209.1083333333333, L
435597, 1209.9916666666666, L
435906, 1210.85, L
436211, 1211.6972222222223, L
436491, 1212.475, L
436776, 1213.2666666666667, L
437095, 1214.1527777777778, L
437421, 1215.0583333333334, L
437749, 1215.9694444444444, L
437930, 1216.4722222222222, V
438401, 1217.7805555555556, L
438707, 1218.6305555555555, L
439013, 1219.4805555555556, L
439318, 1220.3277777777778, L
439658, 1221.2722222222221, L
440001, 1222.225, L
440176, 1222.7111111111112, V
440635, 1223.986111111111, L
440925, 1224.7916666666667, L
441239, 1225.6638888888888, L
441554, 1226.5388888888888, L
441863, 1227.3972222222221, L
442209, 1228.3583333333333, L
442524, 1229.2333333333333, L
442815, 1230.0416666666667, L
443112, 1230.8666666666666, L
443408, 1231.6888888888889, L
443732, 1232.588888888889, L
443937, 1233.1583333333333, V
444377, 1234.3805555555555, L
444562, 1234.8944444444444, V
444982, 1236.0611111111111, L
445251, 1236.8083333333334, L
445529, 1237.5805555555555, L
445809, 1238.3583333333333, L
446110, 1239.1944444444443, L
446277, 1239.6583333333333, V
446714, 1240.8722222222223, L
446981, 1241.6138888888888, L
447246, 1242.35, L
447510, 1243.0833333333333, L
447774, 1243.8166666666666, L
448049, 1244.5805555555555, L
448334, 1245.3722222222223, L
448631, 1246.1972222222223, L
448922, 1247.0055555555555, L
449180, 1247.7222222222222, L
449428, 1248.411111111111, L
449695, 1249.1527777777778, L
449876, 1249.6555555555556, V
450257, 1250.713888888889, L
450545, 1251.513888888889, L
450844, 1252.3444444444444, L
451142, 1253.1722222222222, L
451231, 1253.4194444444445, +
451321, 1253.6694444444445, V
451688, 1254.6888888888889, L
451965, 1255.4583333333333, L
452144, 1255.9555555555555, V
452574, 1257.15, L
452867, 1257.963888888889, L
453045, 1258.4583333333333, V
453238, 1258.9944444444445, +
453431, 1259.5305555555556, L
453695, 1260.263888888889, L
453947, 1260.963888888889, L
454209, 1261.6916666666666, L
454475, 1262.4305555555557, L
454665, 1262.9583333333333, V
455056, 1264.0444444444445, L
455327, 1264.7972222222222, L
455586, 1265.5166666666667, L
455829, 1266.1916666666666, L
456079, 1266.8861111111112, L
456255, 1267.375, V
456404, 1267.7888888888888, V
456855, 1269.0416666666667, L
457149, 1269.8583333333333, L
457230, 1270.0833333333333, +
457312, 1270.3111111111111, V
457719, 1271.4416666666666, L
457967, 1272.1305555555555, L
458108, 1272.5222222222221, V
458487, 1273.575, L
458760, 1274.3333333333333, L
458908, 1274.7444444444445, V
459108, 1275.3, +
459309, 1275.8583333333333, L
459596, 1276.6555555555556, L
459864, 1277.4, L
460111, 1278.0861111111112, L
460355, 1278.763888888889, L
460615, 1279.486111111111, L
460886, 1280.2388888888888, L
461180, 1281.0555555555557, L
461476, 1281.8777777777777, L
461773, 1282.7027777777778, L
462071, 1283.5305555555556, L
462352, 1284.3111111111111, L
462635, 1285.0972222222222, L
462922, 1285.8944444444444, L
463221, 1286.725, L
463550, 1287.638888888889, L
463876, 1288.5444444444445, L
464182, 1289.3944444444444, L
464476, 1290.2111111111112, L
464777, 1291.0472222222222, L
465087, 1291.9083333333333, L
465397, 1292.7694444444444, L
465721, 1293.6694444444445, L
466056, 1294.6, L
466379, 1295.4972222222223, L
466669, 1296.3027777777777, L
466959, 1297.1083333333333, L
467272, 1297.9777777777779, L
467422, 1298.3944444444444, V
467898, 1299.7166666666667, L
468198, 1300.55, L
468485, 1301.3472222222222, L
468760, 1302.111111111111, L
469022, 1302.838888888889, L
469165, 1303.236111111111, V
469580, 1304.388888888889, L
469877, 1305.213888888889, L
470169, 1306.025, L
470452, 1306.8111111111111, L
470730, 1307.5833333333333, L
470993, 1308.3138888888889, L
471266, 1309.0722222222223, L
471541, 1309.8361111111112, L
471820, 1310.611111111111, L
472114, 1311.4277777777777, L
472314, 1311.9833333333333, V
472711, 1313.0861111111112, L
472968, 1313.8, L
473109, 1314.1916666666666, V
473466, 1315.1833333333334, L
473722, 1315.8944444444444, L
473995, 1316.6527777777778, L
474263, 1317.3972222222221, L
474528, 1318.1333333333334, L
474816, 1318.9333333333334, L
475079, 1319.6638888888888, L
475329, 1320.3583333333333, L
475590, 1321.0833333333333, L
475867, 1321.8527777777779, L
476168, 1322.6888888888889, L
476493, 1323.5916666666667, L
476813, 1324.4805555555556, L
477120, 1325.3333333333333, L
477429, 1326.1916666666666, L
477720, 1327.0, L
478027, 1327.8527777777779, L
478353, 1328.7583333333334, L
478570, 1329.361111111111, V
479050, 1330.6944444444443, L
479361, 1331.5583333333334, L
479671, 1332.4194444444445, L
479989, 1333.3027777777777, L
480308, 1334.1888888888889, L
480632, 1335.088888888889, L
480974, 1336.0388888888888, L
481326, 1337.0166666666667, L
481639, 1337.8861111111112, L
481942, 1338.7277777777779, L
482267, 1339.6305555555555, L
482609, 1340.5805555555555, L
482945, 1341.513888888889, L
483296, 1342.4888888888888, L
483628, 1343.411111111111, L
483948, 1344.3, L
484254, 1345.15, L
484571, 1346.0305555555556, L
484936, 1347.0444444444445, L
485298, 1348.05, L
485629, 1348.9694444444444, L
485946, 1349.85, L
486251, 1350.6972222222223, L
486560, 1351.5555555555557, L
486876, 1352.4333333333334, L
487208, 1353.3555555555556, L
487547, 1354.2972222222222, L
487870, 1355.1944444444443, L
488154, 1355.9833333333333, L
488423, 1356.7305555555556, L
488710, 1357.5277777777778, L
489006, 1358.35, L
489162, 1358.7833333333333, V
489600, 1360.0, L
489912, 1360.8666666666666, L
490190, 1361.638888888889, L
490451, 1362.3638888888888, L
490723, 1363.1194444444445, L
491002, 1363.8944444444444, L
491312, 1364.7555555555555, L
491629, 1365.6361111111112, L
491941, 1366.5027777777777, L
492265, 1367.4027777777778, L
492569, 1368.2472222222223, L
492857, 1369.0472222222222, L
493175, 1369.9305555555557, L
493510, 1370.861111111111, L
493861, 1371.8361111111112, L
494197, 1372.7694444444444, L
494514, 1373.65, L
494836, 1374.5444444444445, L
495146, 1375.4055555555556, L
495463, 1376.286111111111, L
495801, 1377.225, L
496138, 1378.161111111111, L
496478, 1379.1055555555556, L
496784, 1379.9555555555555, L
497073, 1380.7583333333334, L
497221, 1381.1694444444445, V
497674, 1382.4277777777777, L
497964, 1383.2333333333333, L
498256, 1384.0444444444445, L
498547, 1384.8527777777779, L
498826, 1385.6277777777777, L
499082, 1386.338888888889, L
499341, 1387.0583333333334, L
499612, 1387.8111111111111, L
499900, 1388.611111111111, L
500197, 1389.4361111111111, L
500477, 1390.213888888889, L
500762, 1391.0055555555555, L
500926, 1391.4611111111112, V
501288, 1392.4666666666667, L
501544, 1393.1777777777777, L
501689, 1393.5805555555555, V
502074, 1394.65, L
502370, 1395.4722222222222, L
502649, 1396.2472222222223, L
502909, 1396.9694444444444, L
503160, 1397.6666666666667, L
503401, 1398.3361111111112, L
503646, 1399.0166666666667, L
503912, 1399.7555555555555, L
504178, 1400.4944444444445, L
504462, 1401.2833333333333, L
504775, 1402.1527777777778, L
504973, 1402.7027777777778, V
505193, 1403.3138888888889, V
505633, 1404.536111111111, L
505900, 1405.2777777777778, L
506180, 1406.0555555555557, L
506482, 1406.8944444444444, L
506777, 1407.713888888889, L
507073, 1408.536111111111, L
507384, 1409.4, L
507668, 1410.1888888888889, L
507953, 1410.9805555555556, L
508258, 1411.8277777777778, L
508570, 1412.6944444444443, L
508900, 1413.611111111111, L
509235, 1414.5416666666667, L
509546, 1415.4055555555556, L
509848, 1416.2444444444445, L
510150, 1417.0833333333333, L
510438, 1417.8833333333334, L
510733, 1418.7027777777778, L
511033, 1419.536111111111, L
511347, 1420.4083333333333, L
511657, 1421.2694444444444, L
511934, 1422.0388888888888, L
512204, 1422.7888888888888, L
512497, 1423.6027777777779, L
512641, 1424.0027777777777, V
513068, 1425.1888888888889, L
513356, 1425.9888888888888, L
513535, 1426.486111111111, V
513896, 1427.4888888888888, L
514142, 1428.1722222222222, L
514383, 1428.8416666666667, L
514621, 1429.5027777777777, L
514877, 1430.213888888889, L
515147, 1430.963888888889, L
515428, 1431.7444444444445, L
515706, 1432.5166666666667, L
515990, 1433.3055555555557, L
516256, 1434.0444444444445, L
516522, 1434.7833333333333, L
516685, 1435.236111111111, V
517062, 1436.2833333333333, L
517348, 1437.0777777777778, L
517640, 1437.888888888889, L
517929, 1438.6916666666666, L
518192, 1439.4222222222222, L
518356, 1439.8777777777777, V
518738, 1440.9388888888889, L
519022, 1441.7277777777779, L
519300, 1442.5, L
519574, 1443.2611111111112, L
519876, 1444.1, L
520071, 1444.6416666666667, V
520469, 1445.7472222222223, L
520727, 1446.463888888889, L
520910, 1446.9722222222222, V
521333, 1448.1472222222221, L
521652, 1449.0333333333333, L
521964, 1449.9, L
522288, 1450.8, L
522603, 1451.675, L
522792, 1452.2, V
523185, 1453.2916666666667, L
523477, 1454.1027777777779, L
523797, 1454.9916666666666, L
524120, 1455.888888888889, L
524290, 1456.361111111111, V
524724, 1457.5666666666666, L
524998, 1458.3277777777778, L
525273, 1459.0916666666667, L
525545, 1459.8472222222222, L
525837, 1460.6583333333333, L
526136, 1461.4888888888888, L
526449, 1462.3583333333333, L
526737, 1463.1583333333333, L
527006, 1463.9055555555556, L
527279, 1464.6638888888888, L
527578, 1465.4944444444445, L
527865, 1466.2916666666667, L
528163, 1467.1194444444445, L
528475, 1467.986111111111, L
528786, 1468.85, L
529096, 1469.7111111111112, L
529373, 1470.4805555555556, L
529663, 1471.286111111111, L
529986, 1472.1833333333334, L
530307, 1473.075, L
530609, 1473.9138888888888, L
530766, 1474.35, V
531226, 1475.6277777777777, L
531504, 1476.4, L
531781, 1477.1694444444445, L
532058, 1477.9388888888889, L
532362, 1478.7833333333333, L
532522, 1479.2277777777779, V
532982, 1480.5055555555555, L
533269, 1481.3027777777777, L
533549, 1482.0805555555555, L
533823, 1482.8416666666667, L
534100, 1483.611111111111, L
534247, 1484.0194444444444, V
534675, 1485.2083333333333, L
534981, 1486.0583333333334, L
535282, 1486.8944444444444, L
535555, 1487.6527777777778, L
535820, 1488.388888888889, L
536086, 1489.1277777777777, L
536376, 1489.9333333333334, L
536665, 1490.736111111111, L
536954, 1491.5388888888888, L
537252, 1492.3666666666666, L
537552, 1493.2, L
537817, 1493.9361111111111, L
538073, 1494.6472222222221, L
538341, 1495.3916666666667, L
538621, 1496.1694444444445, L
538924, 1497.0111111111112, L
539229, 1497.8583333333333, L
539528, 1498.6888888888889, L
539833, 1499.536111111111, L
540120, 1500.3333333333333, L
540261, 1500.725, V
540697, 1501.9361111111111, L
541003, 1502.786111111111, L
541309, 1503.6361111111112, L
541626, 1504.5166666666667, L
541917, 1505.325, L
542055, 1505.7083333333333, V
542452, 1506.8111111111111, L
542715, 1507.5416666666667, L
542976, 1508.2666666666667, L
543245, 1509.013888888889, L
543521, 1509.7805555555556, L
543797, 1510.5472222222222, L
544079, 1511.3305555555555, L
544331, 1512.0305555555556, L
544573, 1512.7027777777778, L
544826, 1513.4055555555556, L
545105, 1514.1805555555557, L
545393, 1514.9805555555556, L
545685, 1515.7916666666667, L
545997, 1516.6583333333333, L
546301, 1517.5027777777777, L
546587, 1518.2972222222222, L
546730, 1518.6944444444443, V
547172, 1519.9222222222222, L
547485, 1520.7916666666667, L
547809, 1521.6916666666666, L
547968, 1522.1333333333334, V
548440, 1523.4444444444443, L
548720, 1524.2222222222222, L
549001, 1525.0027777777777, L
549155, 1525.4305555555557, V
549591, 1526.6416666666667, L
549887, 1527.463888888889, L
550097, 1528.0472222222222, V
550514, 1529.2055555555555, L
550780, 1529.9444444444443, L
551052, 1530.7, L
551336, 1531.4888888888888, L
551642, 1532.338888888889, L
551956, 1533.2111111111112, L
552108, 1533.6333333333334, V
552610, 1535.0277777777778, L
552903, 1535.8416666666667, L
553184, 1536.6222222222223, L
553477, 1537.4361111111111, L
553780, 1538.2777777777778, L
554116, 1539.2111111111112, L
554449, 1540.1361111111112, L
554766, 1541.0166666666667, L
555086, 1541.9055555555556, L
555389, 1542.7472222222223, L
555694, 1543.5944444444444, L
556020, 1544.5, L
556358, 1545.4388888888889, L
556706, 1546.4055555555556, L
557005, 1547.236111111111, L
557281, 1548.0027777777777, L
557561, 1548.7805555555556, L
557838, 1549.55, L
558113, 1550.3138888888889, L
558412, 1551.1444444444444, L
558565, 1551.5694444444443, V
559012, 1552.8111111111111, L
559292, 1553.588888888889, L
559546, 1554.2944444444445, L
559790, 1554.9722222222222, L
560076, 1555.7666666666667, L
560357, 1556.5472222222222, L
560636, 1557.3222222222223, L
560932, 1558.1444444444444, L
561220, 1558.9444444444443, L
561494, 1559.7055555555555, L
561753, 1560.425, L
562008, 1561.1333333333334, L
562272, 1561.8666666666666, L
562556, 1562.6555555555556, L
562735, 1563.1527777777778, V
563108, 1564.1888888888889, L
563376, 1564.9333333333334, L
563633, 1565.6472222222221, L
563879, 1566.3305555555555, L
564117, 1566.9916666666666, L
564290, 1567.4722222222222, V
564606, 1568.35, L
564871, 1569.0861111111112, L
565148, 1569.8555555555556, L
565413, 1570.5916666666667, L
565659, 1571.275, L
565821, 1571.725, V
566135, 1572.5972222222222, L
566379, 1573.275, L
566641, 1574.0027777777777, L
566909, 1574.7472222222223, L
567188, 1575.5222222222221, L
567282, 1575.7833333333333, +
567377, 1576.0472222222222, V
567786, 1577.1833333333334, L
568049, 1577.9138888888888, L
568219, 1578.3861111111112, V
568571, 1579.3638888888888, L
568848, 1580.1333333333334, L
569031, 1580.6416666666667, V
569233, 1581.2027777777778, +
569435, 1581.763888888889, L
569707, 1582.5194444444444, L
569997, 1583.325, L
570255, 1584.0416666666667, L
570497, 1584.713888888889, L
570743, 1585.3972222222221, L
570998, 1586.1055555555556, L
571264, 1586.8444444444444, L
571451, 1587.3638888888888, V
571816, 1588.3777777777777, L
572076, 1589.1, L
572219, 1589.4972222222223, V
572614, 1590.5944444444444, L
572876, 1591.3222222222223, L
573145, 1592.0694444444443, L
573428, 1592.8555555555556, L
573715, 1593.6527777777778, L
573927, 1594.2416666666666, V
574324, 1595.3444444444444, L
574588, 1596.0777777777778, L
574869, 1596.8583333333333, L
575160, 1597.6666666666667, L
575462, 1598.5055555555555, L
575771, 1599.3638888888888, L
576094, 1600.2611111111112, L
576417, 1601.1583333333333, L
576728, 1602.0222222222221, L
577023, 1602.8416666666667, L
577331, 1603.6972222222223, L
577672, 1604.6444444444444, L
578010, 1605.5833333333333, L
578341, 1606.5027777777777, L
578570, 1607.138888888889, V
579001, 1608.3361111111112, L
579310, 1609.1944444444443, L
579507, 1609.7416666666666, V
579968, 1611.0222222222221, L
580309, 1611.9694444444444, L
580637, 1612.8805555555555, L
580942, 1613.7277777777779, L
581222, 1614.5055555555555, L
581503, 1615.286111111111, L
581797, 1616.1027777777779, L
581988, 1616.6333333333334, V
582413, 1617.8138888888889, L
582730, 1618.6944444444443, L
583030, 1619.5277777777778, L
583166, 1619.9055555555556, V
583584, 1621.0666666666666, L
583869, 1621.8583333333333, L
584172, 1622.7, L
584472, 1623.5333333333333, L
584774, 1624.3722222222223, L
585093, 1625.2583333333334, L
585390, 1626.0833333333333, L
585674, 1626.8722222222223, L
585873, 1627.425, V
586291, 1628.5861111111112, L
586612, 1629.4777777777779, L
586940, 1630.388888888889, L
587249, 1631.2472222222223, L
587547, 1632.075, L
587832, 1632.8666666666666, L
588126, 1633.6833333333334, L
588274, 1634.0944444444444, V
588748, 1635.411111111111, L
589072, 1636.3111111111111, L
589387, 1637.1861111111111, L
589668, 1637.9666666666667, L
589951, 1638.7527777777777, L
590245, 1639.5694444444443, L
590552, 1640.4222222222222, L
590863, 1641.286111111111, L
591177, 1642.1583333333333, L
591344, 1642.6222222222223, V
591811, 1643.9194444444445, L
592081, 1644.6694444444445, L
592377, 1645.4916666666666, L
592687, 1646.3527777777779, L
592992, 1647.2, L
593292, 1648.0333333333333, L
593599, 1648.8861111111112, L
593886, 1649.6833333333334, L
594172, 1650.4777777777779, L
594451, 1651.2527777777777, L
594730, 1652.0277777777778, L
595058, 1652.9388888888889, L
595384, 1653.8444444444444, L
595697, 1654.713888888889, L
596000, 1655.5555555555557, L
596286, 1656.35, L
596578, 1657.161111111111, L
596867, 1657.963888888889, L
597168, 1658.8, L
597485, 1659.6805555555557, L
597801, 1660.5583333333334, L
598096, 1661.3777777777777, L
598369, 1662.1361111111112, L
598643, 1662.8972222222221, L
598934, 1663.7055555555555, L
599231, 1664.5305555555556, L
599532, 1665.3666666666666, L
599851, 1666.2527777777777, L
600173, 1667.1472222222221, L
600457, 1667.9361111111111, L
600726, 1668.6833333333334, L
601006, 1669.4611111111112, L
601302, 1670.2833333333333, L
601614, 1671.15, L
601912, 1671.9777777777779, L
602203, 1672.786111111111, L
602494, 1673.5944444444444, L
602761, 1674.3361111111112, L
603027, 1675.075, L
603318, 1675.8833333333334, L
603490, 1676.361111111111, V
603670, 1676.861111111111, F
604179, 1678.275, L
604477, 1679.1027777777779, L
604748, 1679.8555555555556, L
605019, 1680.6083333333333, L
605281, 1681.3361111111112, L
605541, 1682.0583333333334, L
605812, 1682.8111111111111, L
606089, 1683.5805555555555, L
606376, 1684.3777777777777, L
606659, 1685.1638888888888, L
606914, 1685.8722222222223, L
607155, 1686.5416666666667, L
607415, 1687.263888888889, L
607675, 1687.986111111111, L
607938, 1688.7166666666667, L
608199, 1689.4416666666666, L
608460, 1690.1666666666667, L
608719, 1690.8861111111112, L
608975, 1691.5972222222222, L
609217, 1692.2694444444444, L
609384, 1692.7333333333333, V
609701, 1693.6138888888888, L
609974, 1694.3722222222223, L
610255, 1695.1527777777778, L
610524, 1695.9, L
610798, 1696.661111111111, L
611073, 1697.425, L
611326, 1698.1277777777777, L
611585, 1698.8472222222222, L
611842, 1699.5611111111111, L
612105, 1700.2916666666667, L
612387, 1701.075, L
612681, 1701.8916666666667, L
612964, 1702.6777777777777, L
613220, 1703.388888888889, L
613470, 1704.0833333333333, L
613712, 1704.7555555555555, L
613962, 1705.45, L
614221, 1706.1694444444445, L
614401, 1706.6694444444445, V
614739, 1707.6083333333333, L
615009, 1708.3583333333333, L
615272, 1709.088888888889, L
615515, 1709.763888888889, L
615743, 1710.3972222222221, L
615983, 1711.0638888888889, L
616144, 1711.5111111111112, V
616499, 1712.4972222222223, L
616774, 1713.2611111111112, L
617052, 1714.0333333333333, L
617323, 1714.786111111111, L
617472, 1715.2, V
617849, 1716.2472222222223, L
618089, 1716.9138888888888, L
618335, 1717.5972222222222, L
618597, 1718.325, L
618872, 1719.088888888889, L
619053, 1719.5916666666667, V
619472, 1720.7555555555555, L
619747, 1721.5194444444444, L
620030, 1722.3055555555557, L
620309, 1723.0805555555555, L
620597, 1723.8805555555555, L
620769, 1724.3583333333333, V
621211, 1725.5861111111112, L
621525, 1726.4583333333333, L
621821, 1727.2805555555556, L
622094, 1728.0388888888888, L
622352, 1728.7555555555555, L
622523, 1729.2305555555556, V
622924, 1730.3444444444444, L
623213, 1731.1472222222221, L
623521, 1732.0027777777777, L
623819, 1732.8305555555555, L
624102, 1733.6166666666666, L
624369, 1734.3583333333333, L
624528, 1734.8, V
624922, 1735.8944444444444, L
625218, 1736.7166666666667, L
625527, 1737.575, L
625811, 1738.3638888888888, L
625999, 1738.8861111111112, V
626382, 1739.95, L
626653, 1740.7027777777778, L
626933, 1741.4805555555556, L
627071, 1741.8638888888888, V
627518, 1743.1055555555556, L
627812, 1743.9222222222222, L
628106, 1744.7388888888888, L
628381, 1745.5027777777777, L
628642, 1746.2277777777779, L
628904, 1746.9555555555555, L
629181, 1747.725, L
629454, 1748.4833333333333, L
629733, 1749.2583333333334, L
630031, 1750.0861111111112, L
630326, 1750.9055555555556, L
630592, 1751.6444444444444, L
630857, 1752.3805555555555, L
631119, 1753.1083333333333, L
631401, 1753.8916666666667, L
631702, 1754.7277777777779, L
632002, 1755.5611111111111, L
632303, 1756.3972222222221, L
632616, 1757.2666666666667, L
632891, 1758.0305555555556, L
633153, 1758.7583333333334, L
633421, 1759.5027777777777, L
633701, 1760.2805555555556, L
633998, 1761.1055555555556, L
634279, 1761.8861111111112, L
634560, 1762.6666666666667, L
634842, 1763.45, L
635109, 1764.1916666666666, L
635374, 1764.9277777777777, L
635644, 1765.6777777777777, L
635927, 1766.463888888889, L
636221, 1767.2805555555556, L
636528, 1768.1333333333334, L
636816, 1768.9333333333334, L
637086, 1769.6833333333334, L
637353, 1770.425, L
637607, 1771.1305555555555, L
637872, 1771.8666666666666, L
638047, 1772.3527777777779, V
638421, 1773.3916666666667, L
638703, 1774.175, L
639001, 1775.0027777777777, L
639265, 1775.736111111111, L
639508, 1776.411111111111, L
639669, 1776.8583333333333, V
640042, 1777.8944444444444, L
640317, 1778.6583333333333, L
640588, 1779.411111111111, L
640869, 1780.1916666666666, L
641149, 1780.9694444444444, L
641426, 1781.7388888888888, L
641565, 1782.125, V
641950, 1783.1944444444443, L
642214, 1783.9277777777777, L
642517, 1784.7694444444444, L
642813, 1785.5916666666667, L
643104, 1786.4, L
643279, 1786.8861111111112, V
643673, 1787.9805555555556, L
643943, 1788.7305555555556, L
644215, 1789.486111111111, L
644485, 1790.236111111111, L
644775, 1791.0416666666667, L
645079, 1791.8861111111112, L
645259, 1792.3861111111112, V
645640, 1793.4444444444443, L
645898, 1794.161111111111, L
646153, 1794.8694444444445, L
646420, 1795.611111111111, L
646698, 1796.3833333333334, L
646789, 1796.6361111111112, +
646880, 1796.888888888889, V
647259, 1797.9416666666666, L
647557, 1798.7694444444444, L
647736, 1799.2666666666667, V
648077, 1800.213888888889, L
648322, 1800.8944444444444, L
648493, 1801.3694444444445, V
648663, 1801.8416666666667, +
648834, 1802.3166666666666, L
649112, 1803.088888888889, L
649379, 1803.8305555555555, L
649627, 1804.5194444444444, L
649891, 1805.2527777777777, L
