41, 0.11388888888888889, +
124, 0.34444444444444444, N
313, 0.8694444444444445, N
503, 1.3972222222222221, N
704, 1.9555555555555555, N
901, 2.5027777777777778, N
1098, 3.05, N
1294, 3.5944444444444446, N
1481, 4.113888888888889, N
1669, 4.636111111111111, N
1854, 5.15, N
2042, 5.6722222222222225, N
2221, 6.169444444444444, N
2407, 6.686111111111111, N
2594, 7.205555555555556, N
2786, 7.738888888888889, N
2990, 8.305555555555555, N
3199, 8.886111111111111, N
3399, 9.441666666666666, N
3605, 10.01388888888889, N
3789, 10.525, N
3971, 11.030555555555555, N
4153, 11.536111111111111, N
4339, 12.052777777777777, N
4520, 12.555555555555555, N
4711, 13.08611111111111, N
4910, 13.63888888888889, N
5111, 14.197222222222223, N
5309, 14.747222222222222, N
5503, 15.286111111111111, N
5690, 15.805555555555555, N
5876, 16.322222222222223, N
6069, 16.858333333333334, N
6258, 17.383333333333333, N
6428, 17.855555555555554, V
6631, 18.419444444444444, N
6817, 18.93611111111111, N
7012, 19.477777777777778, N
7216, 20.044444444444444, N
7412, 20.58888888888889, N
7616, 21.155555555555555, N
7816, 21.711111111111112, N
8018, 22.272222222222222, N
8205, 22.791666666666668, N
8390, 23.305555555555557, N
8570, 23.805555555555557, N
8753, 24.31388888888889, N
8946, 24.85, N
9103, 25.28611111111111, V
9214, 25.594444444444445, V
9549, 26.525, N
9745, 27.069444444444443, N
9943, 27.619444444444444, N
10135, 28.15277777777778, N
10322, 28.67222222222222, N
10490, 29.13888888888889, V
10619, 29.497222222222224, V
10875, 30.208333333333332, N
11062, 30.727777777777778, N
11254, 31.261111111111113, N
11448, 31.8, N
11643, 32.34166666666667, N
11842, 32.894444444444446, N
12050, 33.47222222222222, N
12248, 34.022222222222226, N
12436, 34.544444444444444, N
12618, 35.05, N
12797, 35.547222222222224, N
12976, 36.044444444444444, N
13160, 36.55555555555556, N
13340, 37.05555555555556, N
13533, 37.59166666666667, N
13732, 38.144444444444446, N
13937, 38.71388888888889, N
14138, 39.272222222222226, N
14332, 39.81111111111111, N
14517, 40.325, N
14700, 40.833333333333336, N
14885, 41.34722222222222, N
15018, 41.71666666666667, V
15262, 42.394444444444446, N
15456, 42.93333333333333, N
15649, 43.46944444444444, N
15847, 44.019444444444446, N
16043, 44.56388888888889, N
16244, 45.12222222222222, N
16437, 45.65833333333333, N
16635, 46.208333333333336, N
16809, 46.69166666666667, V
17005, 47.236111111111114, N
17181, 47.725, N
17361, 48.225, N
17542, 48.727777777777774, N
17730, 49.25, N
17927, 49.797222222222224, N
18130, 50.361111111111114, N
18327, 50.90833333333333, N
18467, 51.297222222222224, V
18716, 51.98888888888889, N
18900, 52.5, N
19084, 53.01111111111111, N
19263, 53.50833333333333, N
19442, 54.00555555555555, N
19554, 54.31666666666667, V
19816, 55.044444444444444, N
20010, 55.583333333333336, N
20210, 56.138888888888886, N
20402, 56.672222222222224, N
20595, 57.208333333333336, N
20795, 57.763888888888886, N
20996, 58.32222222222222, N
21180, 58.833333333333336, N
21360, 59.333333333333336, N
21537, 59.825, N
21718, 60.327777777777776, N
21902, 60.83888888888889, N
22098, 61.38333333333333, N
22282, 61.894444444444446, N
22486, 62.46111111111111, N
22687, 63.019444444444446, N
22894, 63.59444444444444, N
23087, 64.13055555555556, N
23278, 64.66111111111111, N
23458, 65.16111111111111, N
23638, 65.66111111111111, N
23822, 66.17222222222222, N
24014, 66.70555555555555, N
24204, 67.23333333333333, N
24406, 67.79444444444445, N
24601, 68.33611111111111, N
24800, 68.88888888888889, N
25007, 69.46388888888889, N
25202, 70.00555555555556, N
25393, 70.53611111111111, N
25575, 71.04166666666667, N
25759, 71.55277777777778, N
25938, 72.05, N
26075, 72.43055555555556, V
26308, 73.07777777777778, N
26500, 73.61111111111111, N
26705, 74.18055555555556, N
26921, 74.78055555555555, N
27125, 75.34722222222223, N
27328, 75.91111111111111, N
27511, 76.41944444444445, N
27653, 76.81388888888888, V
27766, 77.12777777777778, V
28056, 77.93333333333334, N
28243, 78.45277777777778, N
28429, 78.96944444444445, N
28628, 79.52222222222223, N
28823, 80.06388888888888, N
29021, 80.6138888888889, N
29212, 81.14444444444445, N
29400, 81.66666666666667, N
29590, 82.19444444444444, N
29778, 82.71666666666667, N
29957, 83.21388888888889, N
30138, 83.71666666666667, N
30314, 84.20555555555555, N
30491, 84.69722222222222, N
30675, 85.20833333333333, N
30825, 85.625, V
31065, 86.29166666666667, N
31267, 86.85277777777777, N
31469, 87.41388888888889, N
31670, 87.97222222222223, N
31857, 88.49166666666666, N
32040, 89.0, N
32216, 89.4888888888889, N
32396, 89.9888888888889, N
32585, 90.51388888888889, N
32783, 91.06388888888888, N
32978, 91.60555555555555, N
33180, 92.16666666666667, N
33375, 92.70833333333333, N
33573, 93.25833333333334, N
33772, 93.81111111111112, N
33960, 94.33333333333333, N
34146, 94.85, N
34329, 95.35833333333333, N
34516, 95.87777777777778, N
34703, 96.39722222222223, N
34846, 96.79444444444445, V
35083, 97.45277777777778, N
35279, 97.99722222222222, N
35485, 98.56944444444444, N
35703, 99.175, N
35905, 99.73611111111111, N
36057, 100.15833333333333, V
36282, 100.78333333333333, N
36463, 101.28611111111111, N
36646, 101.79444444444445, N
36828, 102.3, N
37017, 102.825, N
37209, 103.35833333333333, N
37413, 103.925, N
37610, 104.47222222222223, N
37811, 105.03055555555555, N
38006, 105.57222222222222, N
38196, 106.1, N
38357, 106.54722222222222, V
38569, 107.1361111111111, N
38745, 107.625, N
38930, 108.13888888888889, N
39109, 108.6361111111111, N
39296, 109.15555555555555, N
39478, 109.66111111111111, N
39677, 110.21388888888889, N
39870, 110.75, N
40075, 111.31944444444444, N
40275, 111.875, N
40466, 112.40555555555555, N
40646, 112.90555555555555, N
40827, 113.40833333333333, N
41007, 113.90833333333333, N
41192, 114.42222222222222, N
41383, 114.95277777777778, N
41579, 115.49722222222222, N
41777, 116.04722222222222, N
41978, 116.60555555555555, N
42174, 117.15, N
42369, 117.69166666666666, N
42561, 118.225, N
42743, 118.73055555555555, N
42930, 119.25, N
43115, 119.76388888888889, N
43307, 120.29722222222222, N
43492, 120.81111111111112, N
43686, 121.35, N
43878, 121.88333333333334, N
44076, 122.43333333333334, N
44281, 123.00277777777778, N
44492, 123.58888888888889, N
44685, 124.125, N
44875, 124.65277777777777, N
45054, 125.15, N
45234, 125.65, N
45419, 126.16388888888889, N
45601, 126.66944444444445, N
45791, 127.19722222222222, N
45985, 127.73611111111111, N
46161, 128.225, V
46392, 128.86666666666667, N
46592, 129.42222222222222, N
46785, 129.95833333333334, N
46968, 130.46666666666667, N
47151, 130.975, N
47335, 131.48611111111111, N
47518, 131.99444444444444, N
47706, 132.51666666666668, N
47892, 133.03333333333333, N
48081, 133.55833333333334, N
48269, 134.08055555555555, N
48472, 134.64444444444445, N
48665, 135.18055555555554, N
48862, 135.7277777777778, N
49050, 136.25, N
49237, 136.76944444444445, N
49417, 137.26944444444445, N
49597, 137.76944444444445, N
49773, 138.25833333333333, N
49952, 138.75555555555556, N
50144, 139.2888888888889, N
50348, 139.85555555555555, N
50549, 140.4138888888889, N
50753, 140.98055555555555, N
50948, 141.5222222222222, N
51138, 142.05, V
51330, 142.58333333333334, N
51512, 143.0888888888889, N
51690, 143.58333333333334, N
51875, 144.09722222222223, N
52066, 144.62777777777777, N
52262, 145.17222222222222, N
52456, 145.7111111111111, N
52658, 146.2722222222222, N
52855, 146.81944444444446, N
53057, 147.38055555555556, N
53259, 147.94166666666666, N
53453, 148.48055555555555, N
53638, 148.99444444444444, N
53820, 149.5, N
53994, 149.98333333333332, N
54176, 150.48888888888888, N
54365, 151.01388888888889, N
54559, 151.55277777777778, N
54756, 152.1, N
54952, 152.64444444444445, N
55160, 153.22222222222223, N
55360, 153.77777777777777, N
55553, 154.3138888888889, N
55732, 154.8111111111111, N
55907, 155.29722222222222, N
56088, 155.8, N
56279, 156.33055555555555, N
56467, 156.8527777777778, N
56658, 157.38333333333333, N
56850, 157.91666666666666, N
57047, 158.4638888888889, N
57238, 158.99444444444444, N
57394, 159.42777777777778, V
57623, 160.0638888888889, N
57812, 160.5888888888889, N
57991, 161.0861111111111, N
58169, 161.58055555555555, N
58343, 162.0638888888889, N
58503, 162.50833333333333, V
58710, 163.08333333333334, N
58900, 163.61111111111111, N
59038, 163.99444444444444, V
59303, 164.73055555555555, N
59499, 165.275, N
59699, 165.83055555555555, N
59877, 166.325, N
60058, 166.82777777777778, N
60197, 167.2138888888889, V
60420, 167.83333333333334, N
60595, 168.31944444444446, N
60779, 168.83055555555555, N
60969, 169.35833333333332, N
61168, 169.9111111111111, N
61366, 170.4611111111111, N
61565, 171.01388888888889, N
61754, 171.5388888888889, N
61945, 172.06944444444446, N
62134, 172.59444444444443, N
62314, 173.09444444444443, V
62503, 173.61944444444444, N
62684, 174.12222222222223, N
62865, 174.625, N
63057, 175.15833333333333, N
63257, 175.7138888888889, N
63448, 176.24444444444444, N
63647, 176.79722222222222, N
63850, 177.36111111111111, N
64059, 177.94166666666666, N
64240, 178.44444444444446, N
64421, 178.94722222222222, N
64513, 179.20277777777778, +
64556, 179.32222222222222, V
64672, 179.64444444444445, V
64787, 179.9638888888889, V
64914, 180.31666666666666, +
64973, 180.48055555555555, N
65165, 181.01388888888889, N
65290, 181.36111111111111, V
65567, 182.13055555555556, N
65762, 182.67222222222222, N
65961, 183.225, N
66154, 183.76111111111112, N
66347, 184.29722222222222, N
66524, 184.7888888888889, N
66702, 185.28333333333333, N
66879, 185.775, N
67062, 186.28333333333333, N
67242, 186.78333333333333, N
67388, 187.1888888888889, ~
67437, 187.325, N
67557, 187.65833333333333, ~
67625, 187.84722222222223, N
67820, 188.38888888888889, N
68030, 188.97222222222223, N
68243, 189.5638888888889, N
68437, 190.1027777777778, N
68621, 190.61388888888888, N
68799, 191.10833333333332, N
68969, 191.58055555555555, N
69148, 192.07777777777778, N
69330, 192.58333333333334, N
69521, 193.11388888888888, N
69622, 193.39444444444445, ~
69713, 193.6472222222222, N
69915, 194.20833333333334, N
70112, 194.75555555555556, N
70271, 195.19722222222222, ~
70315, 195.31944444444446, N
70505, 195.84722222222223, N
70687, 196.3527777777778, N
70869, 196.85833333333332, N
71052, 197.36666666666667, N
71231, 197.86388888888888, N
71421, 198.39166666666668, N
71470, 198.52777777777777, ~
71545, 198.73611111111111, V
71681, 199.11388888888888, V
71990, 199.97222222222223, N
72197, 200.54722222222222, N
72390, 201.08333333333334, N
72588, 201.63333333333333, N
72784, 202.17777777777778, N
72931, 202.5861111111111, V
73143, 203.175, N
73319, 203.6638888888889, N
73495, 204.15277777777777, N
73679, 204.6638888888889, N
73761, 204.89166666666668, ~
73871, 205.19722222222222, N
74067, 205.74166666666667, N
74260, 206.27777777777777, N
74461, 206.8361111111111, N
74650, 207.36111111111111, N
74842, 207.89444444444445, N
75029, 208.4138888888889, N
75209, 208.9138888888889, N
75393, 209.425, N
75570, 209.91666666666666, N
75762, 210.45, N
75943, 210.95277777777778, N
76138, 211.49444444444444, N
76327, 212.01944444444445, N
76521, 212.55833333333334, N
76721, 213.11388888888888, N
76922, 213.67222222222222, N
77108, 214.1888888888889, N
77296, 214.7111111111111, N
77472, 215.2, N
77650, 215.69444444444446, N
77824, 216.17777777777778, N
78009, 216.69166666666666, N
78193, 217.20277777777778, N
78391, 217.75277777777777, N
78589, 218.30277777777778, N
78790, 218.86111111111111, N
78989, 219.4138888888889, N
79183, 219.95277777777778, N
79362, 220.45, N
79544, 220.95555555555555, N
79729, 221.46944444444443, N
79914, 221.98333333333332, N
80105, 222.51388888888889, N
80296, 223.04444444444445, N
80483, 223.5638888888889, N
80675, 224.09722222222223, N
80873, 224.6472222222222, N
81062, 225.17222222222222, N
81263, 225.73055555555555, N
81452, 226.25555555555556, N
81639, 226.775, N
81817, 227.26944444444445, N
81999, 227.775, N
82180, 228.27777777777777, N
82349, 228.74722222222223, V
82555, 229.31944444444446, N
82760, 229.88888888888889, N
82962, 230.45, N
83167, 231.01944444444445, N
83360, 231.55555555555554, N
83551, 232.0861111111111, N
83731, 232.5861111111111, N
83910, 233.08333333333334, N
84086, 233.57222222222222, N
84253, 234.0361111111111, V
84458, 234.60555555555555, N
84650, 235.13888888888889, N
84846, 235.68333333333334, N
85046, 236.23888888888888, N
85245, 236.79166666666666, N
85438, 237.32777777777778, N
85637, 237.88055555555556, N
85826, 238.40555555555557, N
86005, 238.90277777777777, N
86184, 239.4, N
86360, 239.88888888888889, N
86541, 240.39166666666668, N
86721, 240.89166666666668, N
86902, 241.39444444444445, N
87093, 241.925, N
87289, 242.46944444444443, N
87491, 243.03055555555557, N
87689, 243.58055555555555, N
87882, 244.11666666666667, N
88064, 244.62222222222223, N
88240, 245.11111111111111, N
88415, 245.59722222222223, N
88597, 246.1027777777778, N
88786, 246.62777777777777, N
88976, 247.15555555555557, N
89172, 247.7, N
89363, 248.23055555555555, N
89562, 248.78333333333333, N
89762, 249.3388888888889, N
89950, 249.86111111111111, N
90132, 250.36666666666667, N
90310, 250.86111111111111, N
90493, 251.36944444444444, N
90669, 251.85833333333332, N
90852, 252.36666666666667, N
91035, 252.875, N
91225, 253.40277777777777, N
91427, 253.9638888888889, N
91640, 254.55555555555554, N
91842, 255.11666666666667, N
92036, 255.65555555555557, N
92223, 256.175, N
92405, 256.68055555555554, N
92587, 257.18611111111113, N
92771, 257.6972222222222, N
92945, 258.18055555555554, N
93130, 258.69444444444446, N
93321, 259.225, N
93526, 259.7944444444444, N
93706, 260.2944444444444, V
93925, 260.90277777777777, N
94119, 261.44166666666666, N
94310, 261.97222222222223, N
94501, 262.5027777777778, N
94693, 263.0361111111111, N
94873, 263.5361111111111, N
95061, 264.05833333333334, N
95239, 264.5527777777778, N
95430, 265.0833333333333, N
95619, 265.60833333333335, N
95823, 266.175, N
96022, 266.72777777777776, N
96229, 267.3027777777778, N
96431, 267.8638888888889, N
96626, 268.40555555555557, N
96810, 268.9166666666667, N
96995, 269.43055555555554, N
97177, 269.93611111111113, N
97363, 270.4527777777778, N
97558, 270.99444444444447, N
97759, 271.5527777777778, N
97959, 272.10833333333335, N
98163, 272.675, N
98362, 273.22777777777776, N
98551, 273.7527777777778, N
98742, 274.28333333333336, N
98925, 274.7916666666667, N
99113, 275.31388888888887, N
99300, 275.8333333333333, N
99498, 276.3833333333333, N
99679, 276.8861111111111, N
99880, 277.44444444444446, N
100071, 277.975, N
100272, 278.53333333333336, N
100476, 279.1, N
100686, 279.68333333333334, N
100878, 280.21666666666664, N
101068, 280.74444444444447, N
101262, 281.28333333333336, N
101432, 281.75555555555553, N
101620, 282.27777777777777, N
101807, 282.7972222222222, N
102001, 283.3361111111111, N
102201, 283.89166666666665, N
102408, 284.46666666666664, N
102605, 285.0138888888889, N
102746, 285.40555555555557, A
102984, 286.06666666666666, N
103177, 286.60277777777776, N
103365, 287.125, N
103560, 287.6666666666667, N
103747, 288.18611111111113, N
103940, 288.72222222222223, N
104131, 289.2527777777778, N
104328, 289.8, N
104527, 290.35277777777776, N
104733, 290.925, N
104927, 291.4638888888889, N
105127, 292.01944444444445, N
105317, 292.5472222222222, N
105502, 293.06111111111113, N
105676, 293.5444444444444, N
105850, 294.02777777777777, N
106026, 294.51666666666665, N
106212, 295.03333333333336, N
106413, 295.59166666666664, N
106625, 296.18055555555554, N
106835, 296.7638888888889, N
107049, 297.35833333333335, N
107239, 297.8861111111111, N
107427, 298.40833333333336, N
107612, 298.9222222222222, N
107790, 299.4166666666667, N
107973, 299.925, N
108162, 300.45, N
108365, 301.0138888888889, N
108562, 301.56111111111113, N
108766, 302.1277777777778, N
108961, 302.6694444444444, N
109161, 303.225, N
109365, 303.7916666666667, N
109564, 304.34444444444443, N
109743, 304.84166666666664, N
109925, 305.34722222222223, N
110062, 305.72777777777776, V
110192, 306.0888888888889, V
110463, 306.84166666666664, N
110662, 307.39444444444445, N
110852, 307.9222222222222, N
111052, 308.47777777777776, N
111253, 309.0361111111111, N
111454, 309.59444444444443, N
111642, 310.1166666666667, N
111824, 310.6222222222222, N
112001, 311.1138888888889, N
112181, 311.6138888888889, N
112359, 312.10833333333335, N
112552, 312.64444444444445, N
112741, 313.1694444444444, N
112941, 313.725, N
113138, 314.27222222222224, N
113338, 314.8277777777778, N
113543, 315.39722222222224, N
113733, 315.925, N
113920, 316.44444444444446, N
114098, 316.93888888888887, N
114282, 317.45, N
114460, 317.94444444444446, N
114654, 318.48333333333335, N
114837, 318.9916666666667, N
115029, 319.525, N
115231, 320.0861111111111, N
115441, 320.6694444444444, N
115643, 321.23055555555555, N
115850, 321.80555555555554, N
116035, 322.31944444444446, N
116219, 322.8305555555556, N
116396, 323.3222222222222, N
116574, 323.81666666666666, N
116755, 324.31944444444446, N
116943, 324.84166666666664, N
117144, 325.4, N
117343, 325.9527777777778, N
117502, 326.39444444444445, V
117743, 327.06388888888887, N
117930, 327.5833333333333, N
118119, 328.10833333333335, N
118306, 328.6277777777778, N
118486, 329.1277777777778, N
118667, 329.63055555555553, N
118849, 330.1361111111111, N
119026, 330.6277777777778, N
119176, 331.0444444444444, V
119401, 331.6694444444444, N
119588, 332.18888888888887, N
119792, 332.75555555555553, N
119990, 333.30555555555554, N
120192, 333.8666666666667, N
120377, 334.38055555555553, N
120558, 334.8833333333333, N
120733, 335.36944444444447, N
120912, 335.8666666666667, N
121102, 336.39444444444445, N
121296, 336.93333333333334, N
121485, 337.4583333333333, N
121689, 338.025, N
121879, 338.5527777777778, N
122082, 339.1166666666667, N
122280, 339.6666666666667, N
122469, 340.19166666666666, N
122652, 340.7, N
122835, 341.2083333333333, N
123022, 341.72777777777776, N
123208, 342.24444444444447, N
123400, 342.77777777777777, N
123590, 343.30555555555554, N
123781, 343.8361111111111, N
123985, 344.40277777777777, N
124202, 345.00555555555553, N
124409, 345.5805555555556, N
124608, 346.1333333333333, N
124789, 346.6361111111111, N
124971, 347.14166666666665, N
125149, 347.6361111111111, N
125336, 348.15555555555557, N
125518, 348.6611111111111, N
125712, 349.2, N
125911, 349.7527777777778, N
126114, 350.31666666666666, N
126315, 350.875, N
126519, 351.44166666666666, N
126708, 351.96666666666664, N
126892, 352.47777777777776, N
127080, 353.0, N
127264, 353.5111111111111, N
127442, 354.00555555555553, N
127635, 354.5416666666667, N
127817, 355.0472222222222, N
128015, 355.59722222222223, N
128220, 356.1666666666667, N
128416, 356.7111111111111, N
128617, 357.26944444444445, N
128815, 357.81944444444446, N
129011, 358.3638888888889, N
129194, 358.8722222222222, N
129379, 359.3861111111111, N
129561, 359.89166666666665, N
129746, 360.40555555555557, N
129937, 360.93611111111113, N
130145, 361.5138888888889, N
130351, 362.0861111111111, N
130561, 362.6694444444444, N
130763, 363.23055555555555, N
130967, 363.7972222222222, N
131156, 364.3222222222222, N
131339, 364.8305555555556, N
131474, 365.2055555555556, V
131705, 365.84722222222223, N
131897, 366.38055555555553, N
132091, 366.9194444444444, N
132286, 367.4611111111111, N
132484, 368.0111111111111, N
132676, 368.5444444444444, N
132879, 369.10833333333335, N
133082, 369.6722222222222, N
133277, 370.2138888888889, N
133460, 370.72222222222223, N
133641, 371.225, N
133815, 371.7083333333333, N
133992, 372.2, N
134182, 372.72777777777776, N
134371, 373.2527777777778, N
134563, 373.7861111111111, N
134758, 374.3277777777778, N
134966, 374.90555555555557, N
135169, 375.46944444444443, N
135372, 376.03333333333336, N
135558, 376.55, N
135738, 377.05, N
135920, 377.55555555555554, N
136112, 378.0888888888889, N
136304, 378.6222222222222, N
136499, 379.1638888888889, N
136692, 379.7, N
136890, 380.25, N
137083, 380.7861111111111, N
137243, 381.23055555555555, A
137475, 381.875, N
137668, 382.4111111111111, N
137843, 382.89722222222224, V
138037, 383.43611111111113, N
138213, 383.925, N
138400, 384.44444444444446, N
138580, 384.94444444444446, N
138773, 385.48055555555555, N
138979, 386.0527777777778, N
139191, 386.64166666666665, N
139390, 387.19444444444446, N
139593, 387.7583333333333, N
139776, 388.26666666666665, N
139960, 388.77777777777777, N
140145, 389.2916666666667, N
140329, 389.8027777777778, N
140515, 390.31944444444446, N
140702, 390.8388888888889, N
140902, 391.39444444444445, N
141100, 391.94444444444446, N
141304, 392.5111111111111, N
141507, 393.075, N
141704, 393.6222222222222, N
141898, 394.1611111111111, N
142090, 394.69444444444446, N
142271, 395.1972222222222, N
142456, 395.7111111111111, N
142638, 396.21666666666664, N
142826, 396.7388888888889, N
143016, 397.26666666666665, N
143221, 397.8361111111111, N
143416, 398.3777777777778, N
143628, 398.96666666666664, N
143836, 399.5444444444444, N
144037, 400.10277777777776, N
144220, 400.6111111111111, N
144402, 401.1166666666667, N
144581, 401.6138888888889, N
144767, 402.13055555555553, N
144963, 402.675, N
145164, 403.23333333333335, N
145363, 403.7861111111111, N
145571, 404.3638888888889, N
145770, 404.9166666666667, N
145925, 405.34722222222223, V
146173, 406.0361111111111, N
146356, 406.5444444444444, N
146542, 407.06111111111113, N
146722, 407.56111111111113, N
146913, 408.09166666666664, N
147053, 408.48055555555555, V
147296, 409.15555555555557, N
147488, 409.68888888888887, N
147685, 410.2361111111111, N
147889, 410.8027777777778, N
148111, 411.4194444444444, N
148309, 411.96944444444443, N
148501, 412.5027777777778, N
148672, 412.97777777777776, N
148848, 413.46666666666664, N
149028, 413.96666666666664, N
149216, 414.4888888888889, N
149408, 415.02222222222224, N
149617, 415.60277777777776, N
149831, 416.1972222222222, N
150049, 416.8027777777778, N
150254, 417.3722222222222, N
150453, 417.925, N
150634, 418.4277777777778, N
150819, 418.94166666666666, N
151009, 419.46944444444443, N
151201, 420.0027777777778, N
151399, 420.5527777777778, N
151589, 421.0805555555556, N
151785, 421.625, N
151984, 422.1777777777778, N
152191, 422.7527777777778, N
152394, 423.31666666666666, N
152601, 423.89166666666665, N
152795, 424.43055555555554, N
152977, 424.93611111111113, N
153156, 425.43333333333334, N
153336, 425.93333333333334, N
153523, 426.4527777777778, N
153720, 427.0, N
153858, 427.3833333333333, V
153990, 427.75, V
154182, 428.28333333333336, N
154349, 428.7472222222222, N
154552, 429.31111111111113, N
154753, 429.86944444444447, N
154938, 430.3833333333333, N
155122, 430.89444444444445, N
155285, 431.34722222222223, V
155487, 431.90833333333336, N
155682, 432.45, N
155844, 432.9, V
156076, 433.5444444444444, N
156276, 434.1, N
156475, 434.65277777777777, N
156683, 435.23055555555555, N
156891, 435.80833333333334, N
157084, 436.34444444444443, N
157268, 436.85555555555555, N
157449, 437.35833333333335, N
157632, 437.8666666666667, N
157815, 438.375, N
158007, 438.90833333333336, N
158194, 439.4277777777778, N
158399, 439.9972222222222, N
158554, 440.4277777777778, V
158822, 441.1722222222222, N
159017, 441.7138888888889, N
159207, 442.2416666666667, N
159389, 442.7472222222222, N
159575, 443.2638888888889, N
159761, 443.78055555555557, N
159953, 444.31388888888887, N
160141, 444.8361111111111, N
160338, 445.3833333333333, N
160533, 445.925, N
160733, 446.48055555555555, N
160939, 447.0527777777778, N
161131, 447.5861111111111, N
161325, 448.125, N
161509, 448.6361111111111, N
161696, 449.15555555555557, N
161875, 449.65277777777777, N
162061, 450.1694444444444, N
162226, 450.6277777777778, V
162432, 451.2, N
162632, 451.75555555555553, N
162848, 452.35555555555555, N
163051, 452.9194444444444, N
163259, 453.4972222222222, N
163443, 454.0083333333333, N
163625, 454.5138888888889, N
163806, 455.01666666666665, N
163988, 455.52222222222224, N
164174, 456.0388888888889, N
164363, 456.56388888888887, N
164562, 457.1166666666667, N
164758, 457.6611111111111, N
164962, 458.22777777777776, N
165163, 458.7861111111111, N
165361, 459.3361111111111, N
165560, 459.8888888888889, N
165753, 460.425, N
165934, 460.9277777777778, N
166117, 461.43611111111113, N
166297, 461.93611111111113, N
166485, 462.4583333333333, N
166667, 462.9638888888889, N
166865, 463.5138888888889, N
167055, 464.0416666666667, N
167263, 464.61944444444447, N
167472, 465.2, N
167677, 465.76944444444445, N
167859, 466.275, N
168042, 466.78333333333336, N
168221, 467.28055555555557, N
168405, 467.7916666666667, N
168598, 468.3277777777778, N
168793, 468.86944444444447, N
168990, 469.4166666666667, N
169198, 469.99444444444447, N
169397, 470.5472222222222, N
169598, 471.10555555555555, N
169797, 471.65833333333336, N
169982, 472.1722222222222, N
170168, 472.68888888888887, N
170351, 473.1972222222222, N
170535, 473.7083333333333, N
170722, 474.22777777777776, N
170916, 474.76666666666665, N
171106, 475.2944444444444, N
171297, 475.825, N
171498, 476.3833333333333, N
171710, 476.97222222222223, N
171915, 477.5416666666667, N
172116, 478.1, N
172296, 478.6, N
172474, 479.09444444444443, N
172651, 479.5861111111111, N
172836, 480.1, N
173019, 480.60833333333335, N
173217, 481.15833333333336, N
173352, 481.53333333333336, V
173617, 482.26944444444445, N
173812, 482.81111111111113, N
174014, 483.3722222222222, N
174202, 483.89444444444445, N
174388, 484.4111111111111, N
174571, 484.9194444444444, N
174753, 485.425, N
174927, 485.90833333333336, N
175117, 486.43611111111113, N
175296, 486.93333333333334, N
175487, 487.4638888888889, N
175675, 487.9861111111111, N
175870, 488.52777777777777, N
176061, 489.05833333333334, N
176260, 489.6111111111111, N
176453, 490.14722222222224, N
176637, 490.65833333333336, N
176816, 491.15555555555557, N
176997, 491.65833333333336, N
177174, 492.15, N
177357, 492.65833333333336, N
177552, 493.2, N
177758, 493.77222222222224, N
177960, 494.3333333333333, N
178107, 494.7416666666667, V
178354, 495.4277777777778, N
178546, 495.9611111111111, N
178718, 496.43888888888887, V
178912, 496.97777777777776, N
179094, 497.48333333333335, N
179275, 497.9861111111111, N
179466, 498.51666666666665, N
179612, 498.9222222222222, V
179715, 499.2083333333333, V
180051, 500.14166666666665, N
180215, 500.59722222222223, V
180458, 501.27222222222224, N
180663, 501.84166666666664, N
180854, 502.3722222222222, N
181038, 502.8833333333333, N
181218, 503.3833333333333, N
181398, 503.8833333333333, N
181578, 504.3833333333333, N
181768, 504.9111111111111, N
181955, 505.43055555555554, N
182159, 505.9972222222222, N
182362, 506.56111111111113, N
182572, 507.14444444444445, N
182768, 507.68888888888887, N
182945, 508.18055555555554, V
183138, 508.71666666666664, N
183318, 509.21666666666664, N
183502, 509.72777777777776, N
183695, 510.2638888888889, N
183882, 510.78333333333336, N
184077, 511.325, N
184266, 511.85, N
184465, 512.4027777777778, N
184666, 512.9611111111111, N
184866, 513.5166666666667, N
185058, 514.05, N
185242, 514.5611111111111, N
185426, 515.0722222222222, N
185605, 515.5694444444445, N
185791, 516.0861111111111, N
185979, 516.6083333333333, N
186167, 517.1305555555556, N
186363, 517.675, N
186575, 518.2638888888889, N
186787, 518.8527777777778, N
186996, 519.4333333333333, N
187193, 519.9805555555556, N
187379, 520.4972222222223, N
187557, 520.9916666666667, N
187740, 521.5, N
187918, 521.9944444444444, N
188115, 522.5416666666666, N
188314, 523.0944444444444, N
188527, 523.6861111111111, N
188727, 524.2416666666667, N
188933, 524.8138888888889, N
189129, 525.3583333333333, N
189328, 525.9111111111112, N
189526, 526.4611111111111, N
189652, 526.8111111111111, V
189895, 527.4861111111111, N
190082, 528.0055555555556, N
190267, 528.5194444444444, N
190456, 529.0444444444445, N
190661, 529.6138888888889, N
190859, 530.1638888888889, N
191066, 530.7388888888889, N
191268, 531.3, N
191475, 531.875, N
191661, 532.3916666666667, N
191846, 532.9055555555556, N
192000, 533.3333333333334, V
192126, 533.6833333333333, V
192399, 534.4416666666667, N
192602, 535.0055555555556, N
192802, 535.5611111111111, N
193012, 536.1444444444444, N
193210, 536.6944444444445, N
193414, 537.2611111111111, N
193614, 537.8166666666667, N
193798, 538.3277777777778, N
193980, 538.8333333333334, N
194159, 539.3305555555555, N
194344, 539.8444444444444, N
194527, 540.3527777777778, N
194715, 540.875, N
194898, 541.3833333333333, N
195086, 541.9055555555556, N
195288, 542.4666666666667, N
195501, 543.0583333333333, N
195700, 543.6111111111111, N
195893, 544.1472222222222, N
196069, 544.6361111111111, N
196247, 545.1305555555556, N
196423, 545.6194444444444, N
196609, 546.1361111111111, N
196788, 546.6333333333333, N
196982, 547.1722222222222, N
197180, 547.7222222222222, N
197388, 548.3, N
197591, 548.8638888888889, N
197795, 549.4305555555555, N
197988, 549.9666666666667, N
198175, 550.4861111111111, N
198362, 551.0055555555556, N
198545, 551.5138888888889, N
198730, 552.0277777777778, N
198920, 552.5555555555555, N
199110, 553.0833333333334, N
199302, 553.6166666666667, N
199505, 554.1805555555555, N
199699, 554.7194444444444, N
199892, 555.2555555555556, V
200110, 555.8611111111111, N
200303, 556.3972222222222, N
200481, 556.8916666666667, N
200660, 557.3888888888889, N
200836, 557.8777777777777, N
201022, 558.3944444444444, N
201214, 558.9277777777778, N
201417, 559.4916666666667, N
201616, 560.0444444444445, N
201831, 560.6416666666667, N
202022, 561.1722222222222, N
202217, 561.7138888888888, N
202402, 562.2277777777778, N
202545, 562.625, V
202767, 563.2416666666667, N
202947, 563.7416666666667, N
203138, 564.2722222222222, N
203318, 564.7722222222222, N
203510, 565.3055555555555, N
203702, 565.8388888888888, N
203896, 566.3777777777777, N
204100, 566.9444444444445, N
204308, 567.5222222222222, N
204471, 567.975, V
204680, 568.5555555555555, N
204856, 569.0444444444445, N
205038, 569.55, N
205216, 570.0444444444445, N
205404, 570.5666666666667, N
205588, 571.0777777777778, N
205791, 571.6416666666667, N
205997, 572.2138888888888, N
206159, 572.6638888888889, V
206275, 572.9861111111111, V
206594, 573.8722222222223, N
206782, 574.3944444444444, N
206963, 574.8972222222222, N
207146, 575.4055555555556, N
207332, 575.9222222222222, N
207524, 576.4555555555555, N
207720, 577.0, N
207909, 577.525, N
208104, 578.0666666666667, N
208306, 578.6277777777777, N
208503, 579.175, N
208706, 579.7388888888889, N
208894, 580.2611111111111, N
209081, 580.7805555555556, N
209262, 581.2833333333333, N
209444, 581.7888888888889, N
209631, 582.3083333333333, N
209816, 582.8222222222222, N
210015, 583.375, N
210224, 583.9555555555555, N
210427, 584.5194444444444, N
210637, 585.1027777777778, N
210834, 585.65, N
211026, 586.1833333333333, N
211205, 586.6805555555555, N
211387, 587.1861111111111, N
211562, 587.6722222222222, N
211750, 588.1944444444445, N
211940, 588.7222222222222, N
212140, 589.2777777777778, N
212328, 589.8, N
212485, 590.2361111111111, V
212716, 590.8777777777777, N
212913, 591.425, N
213069, 591.8583333333333, A
213304, 592.5111111111111, N
213482, 593.0055555555556, N
213663, 593.5083333333333, N
213838, 593.9944444444444, N
214025, 594.5138888888889, N
214215, 595.0416666666666, N
214407, 595.575, N
214604, 596.1222222222223, N
214802, 596.6722222222222, N
215009, 597.2472222222223, N
215207, 597.7972222222222, N
215394, 598.3166666666667, N
215573, 598.8138888888889, N
215748, 599.3, N
215930, 599.8055555555555, N
216120, 600.3333333333334, N
216310, 600.8611111111111, N
216506, 601.4055555555556, N
216702, 601.95, N
216897, 602.4916666666667, N
217092, 603.0333333333333, N
217297, 603.6027777777778, N
217484, 604.1222222222223, N
217672, 604.6444444444444, N
217853, 605.1472222222222, N
218040, 605.6666666666666, N
218223, 606.175, N
218411, 606.6972222222222, N
218598, 607.2166666666667, N
218794, 607.7611111111111, N
218976, 608.2666666666667, V
219219, 608.9416666666667, N
219416, 609.4888888888889, N
219615, 610.0416666666666, N
219797, 610.5472222222222, N
219981, 611.0583333333333, N
220163, 611.5638888888889, N
220346, 612.0722222222222, N
220533, 612.5916666666667, N
220726, 613.1277777777777, N
220930, 613.6944444444445, N
221137, 614.2694444444444, N
221343, 614.8416666666667, N
221547, 615.4083333333333, N
221741, 615.9472222222222, N
221888, 616.3555555555556, V
222121, 617.0027777777777, N
222304, 617.5111111111111, N
222493, 618.0361111111112, N
222680, 618.5555555555555, N
222874, 619.0944444444444, N
223036, 619.5444444444445, V
223276, 620.2111111111111, N
223467, 620.7416666666667, N
223675, 621.3194444444445, N
223872, 621.8666666666667, N
224064, 622.4, N
224247, 622.9083333333333, N
224429, 623.4138888888889, N
224605, 623.9027777777778, N
224786, 624.4055555555556, N
224979, 624.9416666666667, N
225183, 625.5083333333333, N
225382, 626.0611111111111, N
225590, 626.6388888888889, N
225784, 627.1777777777778, N
225976, 627.7111111111111, N
226165, 628.2361111111111, N
226347, 628.7416666666667, N
226531, 629.2527777777777, N
226715, 629.7638888888889, N
226910, 630.3055555555555, N
227099, 630.8305555555555, N
227296, 631.3777777777777, N
227495, 631.9305555555555, N
227696, 632.4888888888889, N
227903, 633.0638888888889, N
228114, 633.65, N
228306, 634.1833333333333, N
228495, 634.7083333333334, N
228676, 635.2111111111111, N
228861, 635.725, N
229051, 636.2527777777777, N
229247, 636.7972222222222, N
229441, 637.3361111111111, N
229648, 637.9111111111112, N
229861, 638.5027777777777, N
230072, 639.0888888888888, N
230281, 639.6694444444445, N
230475, 640.2083333333334, N
230660, 640.7222222222222, N
230845, 641.2361111111111, N
231034, 641.7611111111111, N
231230, 642.3055555555555, N
231428, 642.8555555555556, N
231625, 643.4027777777778, N
231827, 643.9638888888888, N
232027, 644.5194444444444, N
232231, 645.0861111111111, N
232424, 645.6222222222223, N
232576, 646.0444444444445, V
232809, 646.6916666666667, N
232991, 647.1972222222222, N
233167, 647.6861111111111, N
233346, 648.1833333333333, N
233529, 648.6916666666667, N
233726, 649.2388888888889, N
233940, 649.8333333333334, N
234151, 650.4194444444445, N
234291, 650.8083333333333, V
234563, 651.5638888888889, N
234755, 652.0972222222222, N
234942, 652.6166666666667, N
235130, 653.1388888888889, N
235310, 653.6388888888889, N
235456, 654.0444444444445, V
235691, 654.6972222222222, N
235891, 655.2527777777777, N
236090, 655.8055555555555, N
236293, 656.3694444444444, N
236446, 656.7944444444445, V
236692, 657.4777777777778, N
236894, 658.0388888888889, N
237085, 658.5694444444445, N
237271, 659.0861111111111, N
237452, 659.5888888888888, N
237637, 660.1027777777778, N
237822, 660.6166666666667, N
238018, 661.1611111111112, N
238211, 661.6972222222222, N
238418, 662.2722222222222, N
238626, 662.85, N
238839, 663.4416666666667, N
239037, 663.9916666666667, N
239224, 664.5111111111111, N
239402, 665.0055555555556, N
239585, 665.5138888888889, N
239777, 666.0472222222222, N
239974, 666.5944444444444, N
240172, 667.1444444444444, N
240374, 667.7055555555555, N
240574, 668.2611111111111, N
240770, 668.8055555555555, N
240976, 669.3777777777777, N
241168, 669.9111111111112, N
241364, 670.4555555555555, N
241553, 670.9805555555556, N
241742, 671.5055555555556, N
241926, 672.0166666666667, N
242114, 672.5388888888889, N
242296, 673.0444444444445, V
242509, 673.6361111111111, N
242723, 674.2305555555556, N
242948, 674.8555555555556, N
243158, 675.4388888888889, N
243355, 675.9861111111111, N
243538, 676.4944444444444, N
243718, 676.9944444444444, N
243904, 677.5111111111111, N
244086, 678.0166666666667, N
244279, 678.5527777777778, N
244473, 679.0916666666667, N
244677, 679.6583333333333, N
244880, 680.2222222222222, N
244952, 680.4222222222222, ~
245084, 680.7888888888889, N
245281, 681.3361111111111, N
245477, 681.8805555555556, N
245624, 682.2888888888889, V
245852, 682.9222222222222, N
246027, 683.4083333333333, N
246167, 683.7972222222222, ~
246210, 683.9166666666666, N
246390, 684.4166666666666, N
246576, 684.9333333333333, N
246772, 685.4777777777778, N
246961, 686.0027777777777, N
247164, 686.5666666666667, N
247368, 687.1333333333333, N
247575, 687.7083333333334, N
247761, 688.225, N
247943, 688.7305555555556, N
248120, 689.2222222222222, N
248300, 689.7222222222222, N
248490, 690.25, N
248690, 690.8055555555555, N
248885, 691.3472222222222, N
249093, 691.925, N
249291, 692.475, N
249495, 693.0416666666666, N
249696, 693.6, N
249892, 694.1444444444444, N
250079, 694.6638888888889, N
250264, 695.1777777777778, N
250450, 695.6944444444445, N
250640, 696.2222222222222, N
250831, 696.7527777777777, N
251026, 697.2944444444445, N
251221, 697.8361111111111, N
251423, 698.3972222222222, N
251632, 698.9777777777778, N
251836, 699.5444444444445, N
252035, 700.0972222222222, N
252220, 700.6111111111111, N
252404, 701.1222222222223, N
252582, 701.6166666666667, N
252767, 702.1305555555556, N
252945, 702.625, N
253141, 703.1694444444445, N
253341, 703.725, N
253553, 704.3138888888889, N
253752, 704.8666666666667, N
253953, 705.425, N
254139, 705.9416666666667, N
254327, 706.4638888888888, N
254517, 706.9916666666667, N
254706, 707.5166666666667, N
254893, 708.0361111111112, N
255083, 708.5638888888889, N
255266, 709.0722222222222, N
255459, 709.6083333333333, N
255661, 710.1694444444445, N
255858, 710.7166666666667, N
256065, 711.2916666666666, N
256262, 711.8388888888888, N
256452, 712.3666666666667, N
256631, 712.8638888888889, N
256814, 713.3722222222223, N
256994, 713.8722222222223, N
257179, 714.3861111111111, N
257375, 714.9305555555555, N
257579, 715.4972222222223, N
257777, 716.0472222222222, N
257984, 716.6222222222223, N
258181, 717.1694444444445, N
258380, 717.7222222222222, N
258566, 718.2388888888889, N
258750, 718.75, N
258927, 719.2416666666667, N
259107, 719.7416666666667, N
259291, 720.2527777777777, N
259481, 720.7805555555556, N
259670, 721.3055555555555, N
259870, 721.8611111111111, N
260059, 722.3861111111111, N
260255, 722.9305555555555, N
260446, 723.4611111111111, V
260575, 723.8194444444445, V
260841, 724.5583333333333, N
261027, 725.075, N
261203, 725.5638888888889, N
261384, 726.0666666666667, N
261573, 726.5916666666667, N
261766, 727.1277777777777, N
261967, 727.6861111111111, N
262173, 728.2583333333333, N
262385, 728.8472222222222, N
262587, 729.4083333333333, N
262786, 729.9611111111111, N
262973, 730.4805555555556, N
263159, 730.9972222222223, N
263345, 731.5138888888889, N
263538, 732.05, N
263727, 732.575, N
263928, 733.1333333333333, N
264076, 733.5444444444445, V
264329, 734.2472222222223, N
264528, 734.8, N
264730, 735.3611111111111, N
264920, 735.8888888888889, N
265112, 736.4222222222222, N
265299, 736.9416666666667, N
265483, 737.4527777777778, N
265669, 737.9694444444444, N
265855, 738.4861111111111, N
266039, 738.9972222222223, N
266231, 739.5305555555556, N
266439, 740.1083333333333, N
266648, 740.6888888888889, N
266851, 741.2527777777777, N
267045, 741.7916666666666, N
267225, 742.2916666666666, N
267403, 742.7861111111112, N
267585, 743.2916666666666, N
267725, 743.6805555555555, V
267952, 744.3111111111111, N
268139, 744.8305555555555, N
268342, 745.3944444444444, N
268538, 745.9388888888889, N
268744, 746.5111111111111, N
268942, 747.0611111111111, N
269140, 747.6111111111111, N
269335, 748.1527777777778, N
269525, 748.6805555555555, N
269705, 749.1805555555555, N
269891, 749.6972222222222, N
270077, 750.2138888888888, N
270267, 750.7416666666667, N
270461, 751.2805555555556, N
270662, 751.8388888888888, N
270864, 752.4, N
271074, 752.9833333333333, N
271286, 753.5722222222222, N
271483, 754.1194444444444, N
271669, 754.6361111111111, N
271850, 755.1388888888889, N
272031, 755.6416666666667, N
272223, 756.175, N
272424, 756.7333333333333, N
272627, 757.2972222222222, N
272836, 757.8777777777777, N
273036, 758.4333333333333, N
273238, 758.9944444444444, N
273439, 759.5527777777778, N
273640, 760.1111111111111, N
273830, 760.6388888888889, N
274015, 761.1527777777778, N
274203, 761.675, N
274394, 762.2055555555555, N
274589, 762.7472222222223, N
274785, 763.2916666666666, N
274984, 763.8444444444444, N
275190, 764.4166666666666, N
275410, 765.0277777777778, N
275618, 765.6055555555556, N
275820, 766.1666666666666, N
276003, 766.675, N
276188, 767.1888888888889, N
276369, 767.6916666666667, N
276556, 768.2111111111111, N
276746, 768.7388888888889, N
276948, 769.3, N
277162, 769.8944444444444, N
277367, 770.4638888888888, N
277571, 771.0305555555556, N
277765, 771.5694444444445, N
277957, 772.1027777777778, N
278151, 772.6416666666667, N
278343, 773.175, N
278525, 773.6805555555555, N
278716, 774.2111111111111, N
278898, 774.7166666666667, N
279097, 775.2694444444444, N
279250, 775.6944444444445, ~
279299, 775.8305555555555, N
279504, 776.4, N
279666, 776.85, V
279908, 777.5222222222222, N
280077, 777.9916666666667, ~
280104, 778.0666666666667, N
280286, 778.5722222222222, N
280467, 779.075, N
280642, 779.5611111111111, N
280814, 780.0388888888889, N
281000, 780.5555555555555, N
281198, 781.1055555555556, N
281401, 781.6694444444445, N
281610, 782.25, N
281810, 782.8055555555555, N
282006, 783.35, N
282193, 783.8694444444444, N
282382, 784.3944444444444, N
282562, 784.8944444444444, N
282749, 785.4138888888889, N
282937, 785.9361111111111, N
283130, 786.4722222222222, N
283321, 787.0027777777777, N
283521, 787.5583333333333, N
283722, 788.1166666666667, N
283932, 788.7, N
284147, 789.2972222222222, N
284352, 789.8666666666667, N
284543, 790.3972222222222, N
284728, 790.9111111111112, N
284910, 791.4166666666666, N
285093, 791.925, N
285289, 792.4694444444444, N
285474, 792.9833333333333, N
285679, 793.5527777777778, N
285890, 794.1388888888889, N
286103, 794.7305555555556, N
286308, 795.3, N
286507, 795.8527777777778, N
286693, 796.3694444444444, N
286880, 796.8888888888889, N
287070, 797.4166666666666, N
287261, 797.9472222222222, N
287455, 798.4861111111111, N
287649, 799.025, N
287844, 799.5666666666667, N
288042, 800.1166666666667, N
288251, 800.6972222222222, N
288451, 801.2527777777777, N
288656, 801.8222222222222, N
288850, 802.3611111111111, N
289035, 802.875, N
289213, 803.3694444444444, N
289395, 803.875, N
289580, 804.3888888888889, N
289773, 804.925, N
289979, 805.4972222222223, N
290189, 806.0805555555555, N
290311, 806.4194444444445, ~
290389, 806.6361111111111, N
290593, 807.2027777777778, N
290789, 807.7472222222223, N
290978, 808.2722222222222, N
291164, 808.7888888888889, N
291259, 809.0527777777778, ~
291338, 809.2722222222222, N
291519, 809.775, N
291702, 810.2833333333333, N
291899, 810.8305555555555, N
292091, 811.3638888888889, N
292291, 811.9194444444445, N
292482, 812.45, N
292675, 812.9861111111111, N
292854, 813.4833333333333, V
293079, 814.1083333333333, N
293263, 814.6194444444444, N
293448, 815.1333333333333, N
293621, 815.6138888888889, N
293806, 816.1277777777777, N
293991, 816.6416666666667, N
294187, 817.1861111111111, N
294386, 817.7388888888889, N
294588, 818.3, N
294795, 818.875, N
294997, 819.4361111111111, N
295193, 819.9805555555556, N
295381, 820.5027777777777, N
295565, 821.0138888888889, N
295750, 821.5277777777778, N
295941, 822.0583333333333, N
296133, 822.5916666666667, N
296335, 823.1527777777778, N
296535, 823.7083333333334, N
296738, 824.2722222222222, N
296932, 824.8111111111111, N
297134, 825.3722222222223, N
297323, 825.8972222222222, N
297514, 826.4277777777778, N
297700, 826.9444444444445, N
297888, 827.4666666666667, N
298070, 827.9722222222222, N
298256, 828.4888888888889, N
298439, 828.9972222222223, N
298636, 829.5444444444445, N
298845, 830.125, N
299060, 830.7222222222222, N
299264, 831.2888888888889, N
299462, 831.8388888888888, N
299644, 832.3444444444444, N
299827, 832.8527777777778, N
300012, 833.3666666666667, N
300192, 833.8666666666667, N
300378, 834.3833333333333, N
300564, 834.9, N
300764, 835.4555555555555, N
300927, 835.9083333333333, V
301163, 836.5638888888889, N
301359, 837.1083333333333, N
301550, 837.6388888888889, N
301735, 838.1527777777778, N
301922, 838.6722222222222, N
302102, 839.1722222222222, N
302287, 839.6861111111111, N
302472, 840.2, N
302658, 840.7166666666667, N
302843, 841.2305555555556, N
303043, 841.7861111111112, N
303237, 842.325, N
303444, 842.9, N
303647, 843.4638888888888, N
303850, 844.0277777777778, N
304032, 844.5333333333333, N
304217, 845.0472222222222, N
304396, 845.5444444444445, N
304582, 846.0611111111111, N
304779, 846.6083333333333, N
304987, 847.1861111111111, N
305188, 847.7444444444444, N
305400, 848.3333333333334, N
305597, 848.8805555555556, N
305800, 849.4444444444445, N
305997, 849.9916666666667, N
306183, 850.5083333333333, N
306370, 851.0277777777778, N
306555, 851.5416666666666, N
306750, 852.0833333333334, N
306940, 852.6111111111111, N
307141, 853.1694444444445, N
307334, 853.7055555555555, N
307534, 854.2611111111111, N
307744, 854.8444444444444, N
307960, 855.4444444444445, N
308159, 855.9972222222223, N
308353, 856.5361111111112, N
308535, 857.0416666666666, N
308716, 857.5444444444445, N
308899, 858.0527777777778, N
309089, 858.5805555555555, N
309286, 859.1277777777777, N
309490, 859.6944444444445, N
309703, 860.2861111111112, N
309906, 860.85, N
310108, 861.4111111111112, N
310301, 861.9472222222222, N
310489, 862.4694444444444, N
310677, 862.9916666666667, N
310867, 863.5194444444444, N
311010, 863.9166666666666, V
311247, 864.575, N
311433, 865.0916666666667, N
311632, 865.6444444444444, N
311832, 866.2, N
311979, 866.6083333333333, ~
312038, 866.7722222222222, N
312233, 867.3138888888889, N
312430, 867.8611111111111, N
312503, 868.0638888888889, ~
312617, 868.3805555555556, N
312797, 868.8805555555556, N
312973, 869.3694444444444, N
313149, 869.8583333333333, N
313327, 870.3527777777778, N
313509, 870.8583333333333, N
313706, 871.4055555555556, N
313911, 871.975, N
314112, 872.5333333333333, N
314321, 873.1138888888889, N
314512, 873.6444444444444, N
314698, 874.1611111111112, N
314880, 874.6666666666666, N
315058, 875.1611111111112, N
315243, 875.675, N
315431, 876.1972222222222, N
315631, 876.7527777777777, N
315798, 877.2166666666667, V
316028, 877.8555555555556, N
316224, 878.4, N
316426, 878.9611111111111, N
316635, 879.5416666666666, N
316839, 880.1083333333333, N
317024, 880.6222222222223, N
317207, 881.1305555555556, N
317383, 881.6194444444444, N
317569, 882.1361111111111, N
317759, 882.6638888888889, N
317954, 883.2055555555555, N
318161, 883.7805555555556, N
318364, 884.3444444444444, N
318577, 884.9361111111111, N
318776, 885.4888888888889, N
318976, 886.0444444444445, N
319162, 886.5611111111111, N
319309, 886.9694444444444, V
319536, 887.6, N
319729, 888.1361111111111, N
319919, 888.6638888888889, N
320126, 889.2388888888889, N
320324, 889.7888888888889, N
320530, 890.3611111111111, N
320738, 890.9388888888889, N
320933, 891.4805555555556, N
321130, 892.0277777777778, N
321318, 892.55, N
321510, 893.0833333333334, N
321691, 893.5861111111111, N
321884, 894.1222222222223, N
322069, 894.6361111111111, N
322261, 895.1694444444445, N
322467, 895.7416666666667, N
322691, 896.3638888888889, N
322903, 896.9527777777778, N
323111, 897.5305555555556, N
323297, 898.0472222222222, N
323480, 898.5555555555555, N
323659, 899.0527777777778, N
323835, 899.5416666666666, N
324023, 900.0638888888889, N
324145, 900.4027777777778, V
324419, 901.1638888888889, N
324615, 901.7083333333334, N
324820, 902.2777777777778, N
325019, 902.8305555555555, N
325218, 903.3833333333333, N
325419, 903.9416666666667, N
325614, 904.4833333333333, N
325796, 904.9888888888889, N
325979, 905.4972222222223, N
326158, 905.9944444444444, N
326349, 906.525, N
326544, 907.0666666666667, N
326746, 907.6277777777777, N
326952, 908.2, N
327156, 908.7666666666667, N
327372, 909.3666666666667, N
327572, 909.9222222222222, N
327765, 910.4583333333334, N
327949, 910.9694444444444, N
328131, 911.475, N
328319, 911.9972222222223, N
328520, 912.5555555555555, N
328676, 912.9888888888889, V
328930, 913.6944444444445, N
329130, 914.25, N
329333, 914.8138888888889, N
329534, 915.3722222222223, N
329730, 915.9166666666666, N
329923, 916.4527777777778, N
330112, 916.9777777777778, N
330303, 917.5083333333333, N
330488, 918.0222222222222, N
330676, 918.5444444444445, N
330867, 919.075, N
331066, 919.6277777777777, N
331276, 920.2111111111111, N
331493, 920.8138888888889, N
331695, 921.375, N
331896, 921.9333333333333, N
332079, 922.4416666666667, N
332157, 922.6583333333333, ~
332265, 922.9583333333334, N
332448, 923.4666666666667, N
332629, 923.9694444444444, N
332815, 924.4861111111111, N
333004, 925.0111111111111, N
333162, 925.45, ~
333205, 925.5694444444445, N
333402, 926.1166666666667, N
333603, 926.675, N
333799, 927.2194444444444, N
333985, 927.7361111111111, N
334170, 928.25, N
334351, 928.7527777777777, N
334531, 929.2527777777777, N
334713, 929.7583333333333, N
334901, 930.2805555555556, N
335087, 930.7972222222222, N
335277, 931.325, N
335480, 931.8888888888889, N
335673, 932.425, N
335883, 933.0083333333333, N
336088, 933.5777777777778, N
336288, 934.1333333333333, N
336474, 934.65, N
336656, 935.1555555555556, N
336836, 935.6555555555556, N
337023, 936.175, N
337223, 936.7305555555556, N
337434, 937.3166666666667, N
337639, 937.8861111111111, N
337846, 938.4611111111111, N
338047, 939.0194444444444, N
338248, 939.5777777777778, N
338446, 940.1277777777777, N
338632, 940.6444444444444, N
338821, 941.1694444444445, N
339004, 941.6777777777778, N
339199, 942.2194444444444, N
339386, 942.7388888888889, N
339588, 943.3, N
339785, 943.8472222222222, N
339988, 944.4111111111112, N
340193, 944.9805555555556, N
340403, 945.5638888888889, N
340596, 946.1, N
340788, 946.6333333333333, N
340970, 947.1388888888889, N
341154, 947.65, N
341339, 948.1638888888889, N
341521, 948.6694444444445, N
341716, 949.2111111111111, N
341918, 949.7722222222222, N
342129, 950.3583333333333, N
342330, 950.9166666666666, N
342527, 951.4638888888888, N
342713, 951.9805555555556, N
342893, 952.4805555555556, N
343077, 952.9916666666667, N
343264, 953.5111111111111, N
343451, 954.0305555555556, N
343641, 954.5583333333333, N
343830, 955.0833333333334, N
344022, 955.6166666666667, N
344218, 956.1611111111112, N
344421, 956.725, N
344612, 957.2555555555556, N
344808, 957.8, N
344992, 958.3111111111111, N
345178, 958.8277777777778, N
345354, 959.3166666666667, N
345536, 959.8222222222222, N
345713, 960.3138888888889, N
345897, 960.825, N
346093, 961.3694444444444, N
346306, 961.9611111111111, N
346514, 962.5388888888889, N
346652, 962.9222222222222, V
346911, 963.6416666666667, N
347097, 964.1583333333333, N
347279, 964.6638888888889, N
347463, 965.175, N
347639, 965.6638888888889, N
347821, 966.1694444444445, N
348004, 966.6777777777778, N
348201, 967.225, N
348390, 967.75, N
348591, 968.3083333333333, N
348782, 968.8388888888888, N
348981, 969.3916666666667, N
349178, 969.9388888888889, N
349363, 970.4527777777778, N
349537, 970.9361111111111, N
349686, 971.35, V
349887, 971.9083333333333, N
350069, 972.4138888888889, N
350252, 972.9222222222222, N
350437, 973.4361111111111, N
350628, 973.9666666666667, N
350827, 974.5194444444444, N
351036, 975.1, N
351235, 975.6527777777778, N
351419, 976.1638888888889, N
351597, 976.6583333333333, N
351772, 977.1444444444444, N
351954, 977.65, N
352143, 978.175, N
352290, 978.5833333333334, V
352526, 979.2388888888889, N
352725, 979.7916666666666, N
352922, 980.3388888888888, N
353116, 980.8777777777777, N
353316, 981.4333333333333, N
353503, 981.9527777777778, N
353692, 982.4777777777778, N
353873, 982.9805555555556, N
354055, 983.4861111111111, N
354231, 983.975, N
354419, 984.4972222222223, N
354605, 985.0138888888889, N
354797, 985.5472222222222, N
354995, 986.0972222222222, V
355148, 986.5222222222222, V
355422, 987.2833333333333, N
355624, 987.8444444444444, N
355807, 988.3527777777778, N
355988, 988.8555555555556, N
356169, 989.3583333333333, N
356350, 989.8611111111111, N
356538, 990.3833333333333, N
356731, 990.9194444444445, N
356937, 991.4916666666667, N
357143, 992.0638888888889, N
357349, 992.6361111111111, N
357547, 993.1861111111111, N
357739, 993.7194444444444, N
357877, 994.1027777777778, V
358120, 994.7777777777778, N
358302, 995.2833333333333, N
358489, 995.8027777777778, N
358670, 996.3055555555555, N
358858, 996.8277777777778, N
359050, 997.3611111111111, N
359256, 997.9333333333333, N
359454, 998.4833333333333, N
359664, 999.0666666666667, N
359871, 999.6416666666667, N
360062, 1000.1722222222222, N
360242, 1000.6722222222222, N
360420, 1001.1666666666666, N
360599, 1001.6638888888889, N
360788, 1002.1888888888889, N
360991, 1002.7527777777777, N
361195, 1003.3194444444445, N
361406, 1003.9055555555556, N
361615, 1004.4861111111111, N
361815, 1005.0416666666666, N
362009, 1005.5805555555555, N
362203, 1006.1194444444444, N
362386, 1006.6277777777777, N
362574, 1007.15, N
362756, 1007.6555555555556, N
362942, 1008.1722222222222, N
363127, 1008.6861111111111, N
363322, 1009.2277777777778, N
363518, 1009.7722222222222, N
363721, 1010.3361111111111, N
363930, 1010.9166666666666, N
364134, 1011.4833333333333, N
364285, 1011.9027777777778, V
364442, 1012.3388888888888, V
364684, 1013.0111111111111, N
364863, 1013.5083333333333, N
365038, 1013.9944444444444, V
365231, 1014.5305555555556, N
365425, 1015.0694444444445, N
365622, 1015.6166666666667, N
365843, 1016.2305555555556, N
366048, 1016.8, N
366252, 1017.3666666666667, N
366437, 1017.8805555555556, N
366622, 1018.3944444444444, N
366767, 1018.7972222222222, V
366996, 1019.4333333333333, N
367177, 1019.9361111111111, N
367371, 1020.475, N
367556, 1020.9888888888889, N
367752, 1021.5333333333333, N
367951, 1022.0861111111111, N
368152, 1022.6444444444444, N
368359, 1023.2194444444444, N
368557, 1023.7694444444444, N
368751, 1024.3083333333334, N
368931, 1024.8083333333334, N
369115, 1025.3194444444443, N
369296, 1025.8222222222223, N
369483, 1026.3416666666667, N
369678, 1026.8833333333334, N
369885, 1027.4583333333333, N
370086, 1028.0166666666667, N
370297, 1028.6027777777779, N
370497, 1029.1583333333333, N
370694, 1029.7055555555555, N
370882, 1030.2277777777779, N
371067, 1030.7416666666666, N
371252, 1031.2555555555555, N
371440, 1031.7777777777778, N
371636, 1032.3222222222223, N
371820, 1032.8333333333333, N
372019, 1033.3861111111112, N
372216, 1033.9333333333334, N
372404, 1034.4555555555555, V
372622, 1035.0611111111111, N
372771, 1035.475, V
373020, 1036.1666666666667, N
373208, 1036.6888888888889, N
373387, 1037.1861111111111, N
373564, 1037.6777777777777, N
373741, 1038.1694444444445, N
373929, 1038.6916666666666, N
374118, 1039.2166666666667, N
374321, 1039.7805555555556, N
374529, 1040.3583333333333, N
374730, 1040.9166666666667, N
374927, 1041.463888888889, N
375119, 1041.9972222222223, N
375303, 1042.5083333333334, N
375489, 1043.025, N
375680, 1043.5555555555557, N
375870, 1044.0833333333333, N
376064, 1044.6222222222223, N
376259, 1045.1638888888888, N
376454, 1045.7055555555555, N
376654, 1046.2611111111112, N
376859, 1046.8305555555555, N
377048, 1047.3555555555556, N
377247, 1047.9083333333333, N
377438, 1048.4388888888889, N
377627, 1048.963888888889, N
377808, 1049.4666666666667, N
377991, 1049.975, N
378171, 1050.475, N
378366, 1051.0166666666667, N
378570, 1051.5833333333333, N
378780, 1052.1666666666667, N
378982, 1052.7277777777779, N
379193, 1053.3138888888889, N
379345, 1053.736111111111, V
379576, 1054.3777777777777, N
379767, 1054.9083333333333, N
379950, 1055.4166666666667, N
380134, 1055.9277777777777, N
380323, 1056.4527777777778, N
380527, 1057.0194444444444, N
380729, 1057.5805555555555, N
380938, 1058.161111111111, N
381140, 1058.7222222222222, N
381339, 1059.275, N
381541, 1059.8361111111112, N
381739, 1060.3861111111112, N
381925, 1060.9027777777778, N
382113, 1061.425, N
382292, 1061.9222222222222, N
382481, 1062.4472222222223, N
382674, 1062.9833333333333, N
382875, 1063.5416666666667, N
383077, 1064.1027777777779, N
383282, 1064.6722222222222, N
383496, 1065.2666666666667, N
383698, 1065.8277777777778, N
383893, 1066.3694444444445, N
384040, 1066.7777777777778, V
384264, 1067.4, N
384450, 1067.9166666666667, N
384651, 1068.475, N
384851, 1069.0305555555556, N
385064, 1069.6222222222223, N
385273, 1070.2027777777778, N
385477, 1070.7694444444444, N
385676, 1071.3222222222223, N
385876, 1071.8777777777777, N
386066, 1072.4055555555556, N
386256, 1072.9333333333334, N
386445, 1073.4583333333333, N
386635, 1073.986111111111, N
386825, 1074.513888888889, N
387022, 1075.0611111111111, N
387220, 1075.611111111111, N
387375, 1076.0416666666667, V
387648, 1076.8, N
387862, 1077.3944444444444, N
388061, 1077.9472222222223, N
388246, 1078.4611111111112, N
388428, 1078.9666666666667, N
388609, 1079.4694444444444, N
388801, 1080.0027777777777, N
388986, 1080.5166666666667, N
389186, 1081.0722222222223, N
389382, 1081.6166666666666, N
389589, 1082.1916666666666, N
389785, 1082.736111111111, N
389989, 1083.3027777777777, N
390178, 1083.8277777777778, N
390366, 1084.35, N
390552, 1084.8666666666666, N
390735, 1085.375, N
390923, 1085.8972222222221, N
391118, 1086.4388888888889, N
391305, 1086.9583333333333, N
391499, 1087.4972222222223, N
391706, 1088.0722222222223, N
391906, 1088.6277777777777, N
392120, 1089.2222222222222, N
392323, 1089.786111111111, N
392521, 1090.3361111111112, N
392703, 1090.8416666666667, N
392889, 1091.3583333333333, N
393074, 1091.8722222222223, N
393265, 1092.4027777777778, N
393466, 1092.9611111111112, N
393679, 1093.5527777777777, N
393891, 1094.1416666666667, N
394106, 1094.7388888888888, N
394307, 1095.2972222222222, N
394505, 1095.8472222222222, N
394698, 1096.3833333333334, N
394881, 1096.8916666666667, N
395071, 1097.4194444444445, N
395259, 1097.9416666666666, N
395456, 1098.4888888888888, N
395647, 1099.0194444444444, N
395850, 1099.5833333333333, N
396048, 1100.1333333333334, N
396256, 1100.7111111111112, N
396469, 1101.3027777777777, N
396675, 1101.875, N
396863, 1102.3972222222221, N
397047, 1102.9083333333333, N
397225, 1103.4027777777778, N
397409, 1103.9138888888888, N
397603, 1104.4527777777778, N
397796, 1104.9888888888888, N
398004, 1105.5666666666666, N
398209, 1106.1361111111112, N
398424, 1106.7333333333333, N
398625, 1107.2916666666667, N
398828, 1107.8555555555556, N
399017, 1108.3805555555555, N
399205, 1108.9027777777778, N
399393, 1109.425, N
399587, 1109.963888888889, N
399758, 1110.4388888888889, V
399985, 1111.0694444444443, N
400186, 1111.6277777777777, N
400393, 1112.2027777777778, N
400604, 1112.7888888888888, N
400803, 1113.3416666666667, N
401008, 1113.911111111111, N
401199, 1114.4416666666666, N
401389, 1114.9694444444444, N
401573, 1115.4805555555556, N
401760, 1116.0, N
401943, 1116.5083333333334, N
402138, 1117.05, N
402349, 1117.6361111111112, N
402572, 1118.2555555555555, N
402789, 1118.8583333333333, N
403000, 1119.4444444444443, N
403123, 1119.786111111111, V
403377, 1120.4916666666666, N
403564, 1121.0111111111112, N
403743, 1121.5083333333334, N
403936, 1122.0444444444445, N
404131, 1122.5861111111112, N
404333, 1123.1472222222221, N
404532, 1123.7, N
404742, 1124.2833333333333, N
404941, 1124.8361111111112, N
405145, 1125.4027777777778, N
405306, 1125.85, V
405536, 1126.4888888888888, N
405711, 1126.975, N
405891, 1127.475, N
406074, 1127.9833333333333, N
406265, 1128.513888888889, N
406463, 1129.0638888888889, N
406655, 1129.5972222222222, N
406863, 1130.175, N
407069, 1130.7472222222223, N
407284, 1131.3444444444444, N
407480, 1131.888888888889, N
407669, 1132.4138888888888, N
407847, 1132.9083333333333, N
408028, 1133.411111111111, N
408220, 1133.9444444444443, N
408422, 1134.5055555555555, N
408616, 1135.0444444444445, N
408823, 1135.6194444444445, N
409017, 1136.1583333333333, N
409220, 1136.7222222222222, N
409430, 1137.3055555555557, N
409625, 1137.8472222222222, N
409817, 1138.3805555555555, N
410002, 1138.8944444444444, N
410191, 1139.4194444444445, N
410376, 1139.9333333333334, N
410571, 1140.475, N
410757, 1140.9916666666666, N
410929, 1141.4694444444444, V
411167, 1142.1305555555555, N
411383, 1142.7305555555556, N
411587, 1143.2972222222222, N
411787, 1143.8527777777779, N
411973, 1144.3694444444445, N
412157, 1144.8805555555555, N
412345, 1145.4027777777778, N
412525, 1145.9027777777778, N
412717, 1146.4361111111111, N
412910, 1146.9722222222222, N
413118, 1147.55, N
413316, 1148.1, N
413521, 1148.6694444444445, N
413720, 1149.2222222222222, N
413913, 1149.7583333333334, N
414103, 1150.286111111111, N
414291, 1150.8083333333334, N
414471, 1151.3083333333334, N
414658, 1151.8277777777778, N
414844, 1152.3444444444444, N
415034, 1152.8722222222223, N
415228, 1153.411111111111, N
415420, 1153.9444444444443, N
415622, 1154.5055555555555, N
415829, 1155.0805555555555, N
416035, 1155.6527777777778, N
416221, 1156.1694444444445, N
416402, 1156.6722222222222, N
416582, 1157.1722222222222, N
416762, 1157.6722222222222, N
416951, 1158.1972222222223, N
417153, 1158.7583333333334, N
417351, 1159.3083333333334, N
417557, 1159.8805555555555, N
417754, 1160.4277777777777, N
417955, 1160.986111111111, N
418152, 1161.5333333333333, N
418346, 1162.0722222222223, N
418529, 1162.5805555555555, N
418713, 1163.0916666666667, N
418899, 1163.6083333333333, N
419089, 1164.1361111111112, N
419279, 1164.6638888888888, N
419470, 1165.1944444444443, N
419661, 1165.725, N
419868, 1166.3, N
420085, 1166.9027777777778, N
420298, 1167.4944444444445, N
420493, 1168.036111111111, N
420676, 1168.5444444444445, N
420858, 1169.05, N
421038, 1169.55, N
421226, 1170.0722222222223, N
421408, 1170.5777777777778, N
421604, 1171.1222222222223, N
421801, 1171.6694444444445, N
422013, 1172.2583333333334, N
422211, 1172.8083333333334, N
422416, 1173.3777777777777, N
422603, 1173.8972222222221, N
422786, 1174.4055555555556, N
422970, 1174.9166666666667, N
423156, 1175.4333333333334, N
423340, 1175.9444444444443, N
423534, 1176.4833333333333, N
423721, 1177.0027777777777, N
423918, 1177.55, N
424116, 1178.1, N
424319, 1178.6638888888888, N
424520, 1179.2222222222222, N
424722, 1179.7833333333333, N
424914, 1180.3166666666666, N
425098, 1180.8277777777778, N
425282, 1181.338888888889, N
425467, 1181.8527777777779, N
425653, 1182.3694444444445, N
425852, 1182.9222222222222, N
426061, 1183.5027777777777, N
426274, 1184.0944444444444, N
426488, 1184.6888888888889, N
426694, 1185.2611111111112, N
426893, 1185.8138888888889, N
427081, 1186.3361111111112, N
427267, 1186.8527777777779, N
427445, 1187.3472222222222, N
427634, 1187.8722222222223, N
427828, 1188.411111111111, N
428031, 1188.975, N
428230, 1189.5277777777778, N
428436, 1190.1, N
428631, 1190.6416666666667, N
428835, 1191.2083333333333, N
428984, 1191.6222222222223, V
429238, 1192.3277777777778, N
429425, 1192.8472222222222, N
429608, 1193.3555555555556, N
429786, 1193.85, N
429971, 1194.3638888888888, N
430167, 1194.9083333333333, N
430359, 1195.4416666666666, N
430514, 1195.8722222222223, V
430765, 1196.5694444444443, N
430967, 1197.1305555555555, N
431157, 1197.6583333333333, N
431349, 1198.1916666666666, N
431529, 1198.6916666666666, N
431711, 1199.1972222222223, N
431893, 1199.7027777777778, N
432087, 1200.2416666666666, N
432275, 1200.763888888889, N
432476, 1201.3222222222223, N
432670, 1201.861111111111, N
432873, 1202.425, N
433070, 1202.9722222222222, N
433269, 1203.525, N
433459, 1204.0527777777777, N
433649, 1204.5805555555555, N
433838, 1205.1055555555556, N
434023, 1205.6194444444445, N
434208, 1206.1333333333334, N
434394, 1206.65, N
434585, 1207.1805555555557, N
434789, 1207.7472222222223, N
435005, 1208.3472222222222, N
435214, 1208.9277777777777, N
435371, 1209.3638888888888, V
435615, 1210.0416666666667, N
435801, 1210.5583333333334, N
435985, 1211.0694444444443, N
436172, 1211.588888888889, N
436357, 1212.1027777777779, N
436553, 1212.6472222222221, N
436756, 1213.2111111111112, N
436963, 1213.786111111111, N
437172, 1214.3666666666666, N
437380, 1214.9444444444443, N
437582, 1215.5055555555555, N
437781, 1216.0583333333334, N
437975, 1216.5972222222222, N
438162, 1217.1166666666666, N
438350, 1217.638888888889, N
438541, 1218.1694444444445, N
438735, 1218.7083333333333, N
438936, 1219.2666666666667, N
439144, 1219.8444444444444, N
439294, 1220.2611111111112, V
439560, 1221.0, N
439772, 1221.588888888889, N
439971, 1222.1416666666667, N
440158, 1222.661111111111, N
440340, 1223.1666666666667, N
440520, 1223.6666666666667, N
440709, 1224.1916666666666, N
440909, 1224.7472222222223, N
441109, 1225.3027777777777, N
441325, 1225.9027777777778, N
441535, 1226.486111111111, N
441738, 1227.05, N
441931, 1227.5861111111112, N
442122, 1228.1166666666666, N
442305, 1228.625, N
442492, 1229.1444444444444, N
442679, 1229.6638888888888, N
442869, 1230.1916666666666, N
443058, 1230.7166666666667, N
443157, 1230.9916666666666, +
443184, 1231.0666666666666, V
443304, 1231.4, V
443430, 1231.75, V
443573, 1232.1472222222221, +
443673, 1232.425, N
443896, 1233.0444444444445, N
444105, 1233.625, N
444302, 1234.1722222222222, N
444485, 1234.6805555555557, N
444672, 1235.2, N
444856, 1235.7111111111112, N
445049, 1236.2472222222223, N
445238, 1236.7722222222221, N
445442, 1237.338888888889, N
445656, 1237.9333333333334, N
445873, 1238.536111111111, N
446088, 1239.1333333333334, N
446288, 1239.6888888888889, N
446478, 1240.2166666666667, N
446668, 1240.7444444444445, N
446861, 1241.2805555555556, N
447051, 1241.8083333333334, N
447250, 1242.361111111111, N
447437, 1242.8805555555555, N
447640, 1243.4444444444443, N
447842, 1244.0055555555555, N
448049, 1244.5805555555555, N
448257, 1245.1583333333333, N
448460, 1245.7222222222222, N
448659, 1246.275, N
448844, 1246.7888888888888, N
449033, 1247.3138888888889, N
449217, 1247.825, N
449412, 1248.3666666666666, N
449561, 1248.7805555555556, V
449827, 1249.5194444444444, N
450033, 1250.0916666666667, N
450252, 1250.7, N
450452, 1251.2555555555555, N
450620, 1251.7222222222222, ~
450651, 1251.8083333333334, N
450842, 1252.338888888889, N
451020, 1252.8333333333333, N
451204, 1253.3444444444444, N
451386, 1253.85, N
451516, 1254.2111111111112, ~
451583, 1254.3972222222221, N
451770, 1254.9166666666667, N
451965, 1255.4583333333333, N
452153, 1255.9805555555556, N
452346, 1256.5166666666667, N
452482, 1256.8944444444444, V
452760, 1257.6666666666667, N
452948, 1258.1888888888889, N
453134, 1258.7055555555555, N
453307, 1259.1861111111111, N
453488, 1259.6888888888889, N
453670, 1260.1944444444443, N
453861, 1260.725, N
454058, 1261.2722222222221, N
454259, 1261.8305555555555, N
454465, 1262.4027777777778, N
454668, 1262.9666666666667, N
454871, 1263.5305555555556, N
455064, 1264.0666666666666, N
455251, 1264.5861111111112, N
455437, 1265.1027777777779, N
455626, 1265.6277777777777, N
455815, 1266.1527777777778, N
456012, 1266.7, N
456205, 1267.236111111111, N
456409, 1267.8027777777777, N
456612, 1268.3666666666666, N
456813, 1268.925, N
457015, 1269.486111111111, N
457215, 1270.0416666666667, N
457412, 1270.588888888889, N
457600, 1271.111111111111, N
457786, 1271.6277777777777, N
457939, 1272.0527777777777, V
458156, 1272.6555555555556, N
458355, 1273.2083333333333, N
458571, 1273.8083333333334, N
458781, 1274.3916666666667, N
458920, 1274.7777777777778, V
459193, 1275.536111111111, N
459385, 1276.0694444444443, N
459570, 1276.5833333333333, N
459756, 1277.1, N
459940, 1277.611111111111, N
460089, 1278.025, V
460322, 1278.6722222222222, N
460517, 1279.213888888889, N
460656, 1279.6, ~
460715, 1279.763888888889, N
460917, 1280.325, N
461114, 1280.8722222222223, N
461318, 1281.4388888888889, N
461516, 1281.9888888888888, N
461624, 1282.2888888888888, ~
461699, 1282.4972222222223, N
461879, 1282.9972222222223, N
462056, 1283.4888888888888, N
462236, 1283.9888888888888, N
462417, 1284.4916666666666, N
462608, 1285.0222222222221, N
462794, 1285.5388888888888, N
463000, 1286.111111111111, N
463204, 1286.6777777777777, N
463419, 1287.275, N
463612, 1287.8111111111111, N
463802, 1288.338888888889, N
463979, 1288.8305555555555, N
464162, 1289.338888888889, N
464350, 1289.861111111111, N
464554, 1290.4277777777777, N
464749, 1290.9694444444444, N
464960, 1291.5555555555557, N
465156, 1292.1, N
465362, 1292.6722222222222, N
465568, 1293.2444444444445, N
465767, 1293.7972222222222, N
465963, 1294.3416666666667, N
466153, 1294.8694444444445, N
466346, 1295.4055555555556, N
466532, 1295.9222222222222, N
466726, 1296.4611111111112, N
466918, 1296.9944444444445, N
467120, 1297.5555555555557, N
467332, 1298.1444444444444, N
467553, 1298.7583333333334, N
467760, 1299.3333333333333, N
467963, 1299.8972222222221, N
468145, 1300.4027777777778, N
468331, 1300.9194444444445, N
468514, 1301.4277777777777, N
468701, 1301.9472222222223, N
468895, 1302.486111111111, N
469091, 1303.0305555555556, N
469305, 1303.625, N
469507, 1304.1861111111111, N
469656, 1304.6, V
469758, 1304.8833333333334, V
470106, 1305.85, N
470304, 1306.4, N
470497, 1306.9361111111111, N
470680, 1307.4444444444443, N
470868, 1307.9666666666667, N
471050, 1308.4722222222222, N
471238, 1308.9944444444445, N
471430, 1309.5277777777778, N
471633, 1310.0916666666667, N
471823, 1310.6194444444445, N
472027, 1311.1861111111111, N
472219, 1311.7194444444444, N
472407, 1312.2416666666666, N
472581, 1312.725, N
472760, 1313.2222222222222, N
472934, 1313.7055555555555, N
473119, 1314.2194444444444, N
473314, 1314.7611111111112, N
473522, 1315.338888888889, N
473725, 1315.9027777777778, N
473933, 1316.4805555555556, N
474129, 1317.025, N
474329, 1317.5805555555555, N
474523, 1318.1194444444445, N
474708, 1318.6333333333334, N
474896, 1319.1555555555556, N
475079, 1319.6638888888888, N
475273, 1320.2027777777778, N
475460, 1320.7222222222222, N
475662, 1321.2833333333333, N
475858, 1321.8277777777778, N
476057, 1322.3805555555555, N
476266, 1322.9611111111112, N
476480, 1323.5555555555557, N
476676, 1324.1, N
476868, 1324.6333333333334, N
477050, 1325.138888888889, N
477235, 1325.6527777777778, N
477423, 1326.175, N
477611, 1326.6972222222223, N
477811, 1327.2527777777777, N
478019, 1327.8305555555555, N
478239, 1328.4416666666666, N
478445, 1329.013888888889, N
478653, 1329.5916666666667, N
478837, 1330.1027777777779, N
479024, 1330.6222222222223, N
479215, 1331.1527777777778, N
479408, 1331.6888888888889, N
479600, 1332.2222222222222, N
479798, 1332.7722222222221, N
479986, 1333.2944444444445, N
480024, 1333.4, ~
480151, 1333.7527777777777, V
480393, 1334.425, N
480596, 1334.9888888888888, N
480731, 1335.3638888888888, ~
480800, 1335.5555555555557, N
480991, 1336.0861111111112, N
481175, 1336.5972222222222, N
481351, 1337.0861111111112, N
481528, 1337.5777777777778, N
481708, 1338.0777777777778, N
481893, 1338.5916666666667, N
482046, 1339.0166666666667, V
482316, 1339.7666666666667, N
482565, 1340.4583333333333, "
482708, 1340.8555555555556, N
482923, 1341.4527777777778, N
483115, 1341.986111111111, N
483300, 1342.5, N
483482, 1343.0055555555555, N
483662, 1343.5055555555555, N
483844, 1344.0111111111112, N
484037, 1344.5472222222222, N
484239, 1345.1083333333333, N
484451, 1345.6972222222223, N
484658, 1346.2722222222221, N
484864, 1346.8444444444444, N
485016, 1347.2666666666667, V
485264, 1347.9555555555555, N
485458, 1348.4944444444445, N
485642, 1349.0055555555555, N
485827, 1349.5194444444444, N
486013, 1350.036111111111, N
486208, 1350.5777777777778, N
486405, 1351.125, N
486611, 1351.6972222222223, N
486813, 1352.2583333333334, N
487025, 1352.8472222222222, N
487239, 1353.4416666666666, N
487440, 1354.0, N
487629, 1354.525, N
487812, 1355.0333333333333, N
487991, 1355.5305555555556, N
488180, 1356.0555555555557, N
488382, 1356.6166666666666, N
488584, 1357.1777777777777, N
488796, 1357.7666666666667, N
488998, 1358.3277777777778, N
489204, 1358.9, N
489400, 1359.4444444444443, N
489596, 1359.9888888888888, N
489785, 1360.513888888889, N
489972, 1361.0333333333333, N
490158, 1361.55, N
490343, 1362.0638888888889, N
490529, 1362.5805555555555, N
490722, 1363.1166666666666, N
490916, 1363.6555555555556, N
491124, 1364.2333333333333, N
491337, 1364.825, N
491543, 1365.3972222222221, N
491740, 1365.9444444444443, N
491922, 1366.45, N
492105, 1366.9583333333333, N
492284, 1367.4555555555555, N
492472, 1367.9777777777779, N
492654, 1368.4833333333333, N
492852, 1369.0333333333333, N
493059, 1369.6083333333333, N
493267, 1370.1861111111111, N
493473, 1370.7583333333334, N
493672, 1371.3111111111111, N
493863, 1371.8416666666667, N
494054, 1372.3722222222223, N
494245, 1372.9027777777778, N
494430, 1373.4166666666667, N
494619, 1373.9416666666666, N
494804, 1374.4555555555555, N
494995, 1374.986111111111, N
495191, 1375.5305555555556, N
495400, 1376.111111111111, N
495598, 1376.661111111111, N
495807, 1377.2416666666666, N
496010, 1377.8055555555557, N
496201, 1378.3361111111112, N
496385, 1378.8472222222222, N
496570, 1379.361111111111, N
496752, 1379.8666666666666, N
496945, 1380.4027777777778, N
497144, 1380.9555555555555, N
497347, 1381.5194444444444, N
497555, 1382.0972222222222, N
497762, 1382.6722222222222, N
497969, 1383.2472222222223, N
498163, 1383.786111111111, N
498353, 1384.3138888888889, N
498533, 1384.8138888888889, N
498720, 1385.3333333333333, N
498909, 1385.8583333333333, N
499102, 1386.3944444444444, N
499289, 1386.9138888888888, N
499483, 1387.4527777777778, N
499674, 1387.9833333333333, N
499874, 1388.5388888888888, N
500084, 1389.1222222222223, N
500293, 1389.7027777777778, N
500480, 1390.2222222222222, N
500662, 1390.7277777777779, N
500836, 1391.2111111111112, N
501017, 1391.713888888889, N
501208, 1392.2444444444445, N
501394, 1392.7611111111112, N
501591, 1393.3083333333334, N
501790, 1393.861111111111, N
502009, 1394.4694444444444, N
502168, 1394.911111111111, V
502424, 1395.6222222222223, N
502611, 1396.1416666666667, N
502798, 1396.661111111111, N
502983, 1397.175, N
503172, 1397.7, N
503363, 1398.2305555555556, N
503560, 1398.7777777777778, N
503752, 1399.3111111111111, N
503953, 1399.8694444444445, N
504149, 1400.4138888888888, N
504353, 1400.9805555555556, N
504554, 1401.5388888888888, N
504752, 1402.088888888889, N
504942, 1402.6166666666666, N
505123, 1403.1194444444445, N
505305, 1403.625, N
505493, 1404.1472222222221, N
505680, 1404.6666666666667, N
505881, 1405.225, N
506097, 1405.825, N
506309, 1406.4138888888888, N
506521, 1407.0027777777777, N
506724, 1407.5666666666666, N
506918, 1408.1055555555556, N
507105, 1408.625, N
507293, 1409.1472222222221, N
507471, 1409.6416666666667, N
507660, 1410.1666666666667, N
507855, 1410.7083333333333, N
508060, 1411.2777777777778, N
508263, 1411.8416666666667, N
508469, 1412.4138888888888, N
508662, 1412.95, N
508862, 1413.5055555555555, N
509059, 1414.0527777777777, N
509252, 1414.588888888889, N
509437, 1415.1027777777779, N
509584, 1415.5111111111112, V
509804, 1416.1222222222223, N
509989, 1416.6361111111112, N
510189, 1417.1916666666666, N
510317, 1417.5472222222222, V
510596, 1418.3222222222223, N
510804, 1418.9, N
511016, 1419.4888888888888, N
511207, 1420.0194444444444, N
511397, 1420.5472222222222, N
511580, 1421.0555555555557, N
511763, 1421.5638888888889, N
511951, 1422.0861111111112, N
512146, 1422.6277777777777, N
512337, 1423.1583333333333, N
512540, 1423.7222222222222, N
512733, 1424.2583333333334, N
512928, 1424.8, N
513118, 1425.3277777777778, N
513307, 1425.8527777777779, N
513489, 1426.3583333333333, N
513674, 1426.8722222222223, N
513858, 1427.3833333333334, N
514042, 1427.8944444444444, N
514228, 1428.411111111111, N
514415, 1428.9305555555557, N
514605, 1429.4583333333333, N
514806, 1430.0166666666667, N
515022, 1430.6166666666666, N
515233, 1431.2027777777778, N
515433, 1431.7583333333334, N
515620, 1432.2777777777778, N
515804, 1432.7888888888888, N
515988, 1433.3, N
516178, 1433.8277777777778, N
516362, 1434.338888888889, N
516559, 1434.8861111111112, N
516759, 1435.4416666666666, N
516919, 1435.8861111111112, V
517173, 1436.5916666666667, N
517378, 1437.161111111111, N
517574, 1437.7055555555555, N
517762, 1438.2277777777779, N
517952, 1438.7555555555555, N
518139, 1439.275, N
518325, 1439.7916666666667, N
518519, 1440.3305555555555, N
518702, 1440.838888888889, N
518894, 1441.3722222222223, N
519093, 1441.925, N
519289, 1442.4694444444444, N
519497, 1443.0472222222222, N
519698, 1443.6055555555556, N
519893, 1444.1472222222221, N
520069, 1444.6361111111112, N
520249, 1445.1361111111112, N
520425, 1445.625, N
520604, 1446.1222222222223, V
520804, 1446.6777777777777, N
521010, 1447.25, N
521209, 1447.8027777777777, N
521429, 1448.4138888888888, N
521632, 1448.9777777777779, N
521836, 1449.5444444444445, N
522032, 1450.088888888889, N
522218, 1450.6055555555556, N
522402, 1451.1166666666666, N
522584, 1451.6222222222223, N
522781, 1452.1694444444445, N
522975, 1452.7083333333333, N
523128, 1453.1333333333334, V
523374, 1453.8166666666666, N
523576, 1454.3777777777777, N
523789, 1454.9694444444444, N
524009, 1455.5805555555555, N
524206, 1456.1277777777777, N
524397, 1456.6583333333333, N
524575, 1457.1527777777778, N
524753, 1457.6472222222221, N
524939, 1458.1638888888888, N
525129, 1458.6916666666666, N
525329, 1459.2472222222223, N
525537, 1459.825, N
525766, 1460.4611111111112, N
525976, 1461.0444444444445, N
526133, 1461.4805555555556, V
526237, 1461.7694444444444, V
526544, 1462.6222222222223, N
526706, 1463.0722222222223, V
526923, 1463.675, N
527109, 1464.1916666666666, N
527300, 1464.7222222222222, N
527483, 1465.2305555555556, N
527679, 1465.775, N
527874, 1466.3166666666666, N
528075, 1466.875, N
528267, 1467.4083333333333, N
528460, 1467.9444444444443, N
528642, 1468.45, N
528821, 1468.9472222222223, N
528996, 1469.4333333333334, N
529182, 1469.95, N
529360, 1470.4444444444443, N
529549, 1470.9694444444444, N
529750, 1471.5277777777778, N
529963, 1472.1194444444445, N
530168, 1472.6888888888889, N
530378, 1473.2722222222221, N
530569, 1473.8027777777777, N
530702, 1474.1722222222222, V
530936, 1474.8222222222223, N
531112, 1475.3111111111111, N
531298, 1475.8277777777778, N
531486, 1476.35, N
531684, 1476.9, N
531836, 1477.3222222222223, V
532078, 1477.9944444444445, N
532271, 1478.5305555555556, N
532469, 1479.0805555555555, N
532672, 1479.6444444444444, N
532868, 1480.1888888888889, N
533050, 1480.6944444444443, N
533198, 1481.1055555555556, V
533403, 1481.675, N
533585, 1482.1805555555557, N
533772, 1482.7, N
533962, 1483.2277777777779, N
534164, 1483.7888888888888, N
534363, 1484.3416666666667, N
534574, 1484.9277777777777, N
534727, 1485.3527777777779, V
534967, 1486.0194444444444, N
535147, 1486.5194444444444, N
535316, 1486.9888888888888, V
535509, 1487.525, N
535701, 1488.0583333333334, N
535887, 1488.575, N
536087, 1489.1305555555555, N
536275, 1489.6527777777778, N
536470, 1490.1944444444443, N
536663, 1490.7305555555556, N
536863, 1491.286111111111, N
537055, 1491.8194444444443, N
537244, 1492.3444444444444, N
537425, 1492.8472222222222, N
537605, 1493.3472222222222, N
537785, 1493.8472222222222, N
537973, 1494.3694444444445, N
538159, 1494.8861111111112, N
538356, 1495.4333333333334, N
538566, 1496.0166666666667, N
538777, 1496.6027777777779, N
538988, 1497.1888888888889, N
539185, 1497.736111111111, N
539371, 1498.2527777777777, N
539518, 1498.661111111111, V
539739, 1499.275, N
539915, 1499.763888888889, N
540108, 1500.3, N
540303, 1500.8416666666667, N
540505, 1501.4027777777778, N
540704, 1501.9555555555555, N
540858, 1502.3833333333334, V
540994, 1502.7611111111112, V
541297, 1503.6027777777779, N
541497, 1504.1583333333333, N
541686, 1504.6833333333334, N
541866, 1505.1833333333334, N
542053, 1505.7027777777778, N
542234, 1506.2055555555555, N
542422, 1506.7277777777779, N
542622, 1507.2833333333333, N
542814, 1507.8166666666666, N
543017, 1508.3805555555555, N
543218, 1508.9388888888889, N
543431, 1509.5305555555556, N
543622, 1510.0611111111111, N
543812, 1510.588888888889, N
543992, 1511.088888888889, N
544175, 1511.5972222222222, N
544359, 1512.1083333333333, N
544558, 1512.661111111111, N
544752, 1513.2, N
544962, 1513.7833333333333, N
545160, 1514.3333333333333, N
545317, 1514.7694444444444, V
545549, 1515.4138888888888, N
545740, 1515.9444444444443, N
545923, 1516.4527777777778, N
546106, 1516.9611111111112, N
546289, 1517.4694444444444, N
546471, 1517.975, N
546652, 1518.4777777777779, N
546841, 1519.0027777777777, N
547031, 1519.5305555555556, N
547232, 1520.088888888889, N
547379, 1520.4972222222223, V
547651, 1521.2527777777777, N
547846, 1521.7944444444445, N
548038, 1522.3277777777778, N
548219, 1522.8305555555555, N
548398, 1523.3277777777778, N
548580, 1523.8333333333333, N
548761, 1524.3361111111112, N
548955, 1524.875, N
549154, 1525.4277777777777, N
549367, 1526.0194444444444, N
549565, 1526.5694444444443, N
549771, 1527.1416666666667, N
549967, 1527.6861111111111, N
550157, 1528.213888888889, N
550347, 1528.7416666666666, N
550539, 1529.275, N
550720, 1529.7777777777778, N
550918, 1530.3277777777778, N
551105, 1530.8472222222222, N
551305, 1531.4027777777778, N
551505, 1531.9583333333333, N
551707, 1532.5194444444444, N
551906, 1533.0722222222223, N
552109, 1533.6361111111112, N
552306, 1534.1833333333334, N
552494, 1534.7055555555555, N
552679, 1535.2194444444444, N
552859, 1535.7194444444444, N
553041, 1536.225, N
553233, 1536.7583333333334, N
553443, 1537.3416666666667, N
553652, 1537.9222222222222, N
553863, 1538.5083333333334, N
554063, 1539.0638888888889, N
554253, 1539.5916666666667, N
554439, 1540.1083333333333, N
554626, 1540.6277777777777, N
554804, 1541.1222222222223, N
554989, 1541.6361111111112, N
555171, 1542.1416666666667, N
555361, 1542.6694444444445, N
555549, 1543.1916666666666, N
555752, 1543.7555555555555, N
555945, 1544.2916666666667, N
556143, 1544.8416666666667, N
556347, 1545.4083333333333, N
556546, 1545.9611111111112, N
556729, 1546.4694444444444, N
556915, 1546.986111111111, N
557092, 1547.4777777777779, N
557273, 1547.9805555555556, N
557460, 1548.5, N
557649, 1549.025, N
557852, 1549.588888888889, N
558057, 1550.1583333333333, N
558269, 1550.7472222222223, N
558471, 1551.3083333333334, N
558673, 1551.8694444444445, N
558860, 1552.388888888889, N
559046, 1552.9055555555556, N
559233, 1553.425, N
559427, 1553.963888888889, N
559618, 1554.4944444444445, N
559822, 1555.0611111111111, N
560018, 1555.6055555555556, N
560226, 1556.1833333333334, N
560433, 1556.7583333333334, N
560636, 1557.3222222222223, N
560835, 1557.875, N
561028, 1558.411111111111, N
561221, 1558.9472222222223, N
561404, 1559.4555555555555, N
561525, 1559.7916666666667, V
561784, 1560.5111111111112, N
561976, 1561.0444444444445, N
562185, 1561.625, N
562431, 1562.3083333333334, N
562658, 1562.9388888888889, N
562875, 1563.5416666666667, N
563068, 1564.0777777777778, N
563252, 1564.588888888889, N
563437, 1565.1027777777779, N
563616, 1565.6, N
563807, 1566.1305555555555, N
564005, 1566.6805555555557, N
564215, 1567.263888888889, N
564412, 1567.8111111111111, N
564619, 1568.3861111111112, N
564816, 1568.9333333333334, N
565013, 1569.4805555555556, N
565211, 1570.0305555555556, N
565401, 1570.5583333333334, N
565577, 1571.0472222222222, N
565755, 1571.5416666666667, N
565935, 1572.0416666666667, N
566125, 1572.5694444444443, N
566315, 1573.0972222222222, N
566518, 1573.661111111111, N
566712, 1574.2, N
566861, 1574.6138888888888, V
567132, 1575.3666666666666, N
567331, 1575.9194444444445, N
567522, 1576.45, N
567704, 1576.9555555555555, N
567885, 1577.4583333333333, N
568074, 1577.9833333333333, N
568278, 1578.55, N
568477, 1579.1027777777779, N
568690, 1579.6944444444443, N
568889, 1580.2472222222223, N
569096, 1580.8222222222223, N
569298, 1581.3833333333334, N
569497, 1581.9361111111111, N
569688, 1582.4666666666667, N
569874, 1582.9833333333333, N
570064, 1583.5111111111112, N
570250, 1584.0277777777778, N
570447, 1584.575, N
570642, 1585.1166666666666, N
570841, 1585.6694444444445, N
571054, 1586.2611111111112, N
571277, 1586.8805555555555, N
571483, 1587.4527777777778, N
571684, 1588.0111111111112, N
571868, 1588.5222222222221, N
572056, 1589.0444444444445, N
572243, 1589.5638888888889, N
572426, 1590.0722222222223, N
572619, 1590.6083333333333, N
572815, 1591.1527777777778, N
572972, 1591.588888888889, V
573115, 1591.986111111111, V
573449, 1592.9138888888888, N
573651, 1593.475, N
573844, 1594.0111111111112, N
574034, 1594.5388888888888, N
574225, 1595.0694444444443, N
574407, 1595.575, N
574600, 1596.111111111111, N
574786, 1596.6277777777777, N
574981, 1597.1694444444445, N
575181, 1597.725, N
575379, 1598.275, N
575587, 1598.8527777777779, N
575792, 1599.4222222222222, N
575993, 1599.9805555555556, N
576175, 1600.486111111111, N
576356, 1600.9888888888888, N
576529, 1601.4694444444444, N
576709, 1601.9694444444444, N
576901, 1602.5027777777777, N
577099, 1603.0527777777777, N
577294, 1603.5944444444444, N
577501, 1604.1694444444445, N
577693, 1604.7027777777778, N
577896, 1605.2666666666667, N
578092, 1605.8111111111111, N
578279, 1606.3305555555555, N
578463, 1606.8416666666667, N
578643, 1607.3416666666667, N
578835, 1607.875, N
579027, 1608.4083333333333, N
579227, 1608.963888888889, N
579380, 1609.388888888889, V
579517, 1609.7694444444444, V
579832, 1610.6444444444444, N
580052, 1611.2555555555555, N
580255, 1611.8194444444443, N
580451, 1612.3638888888888, N
580632, 1612.8666666666666, N
580814, 1613.3722222222223, N
581000, 1613.888888888889, N
581188, 1614.411111111111, N
581386, 1614.9611111111112, N
581591, 1615.5305555555556, N
581812, 1616.1444444444444, N
582026, 1616.7388888888888, N
582231, 1617.3083333333334, N
582426, 1617.85, N
582614, 1618.3722222222223, N
582805, 1618.9027777777778, N
582996, 1619.4333333333334, N
583188, 1619.9666666666667, N
583386, 1620.5166666666667, N
583576, 1621.0444444444445, N
583779, 1621.6083333333333, N
583985, 1622.1805555555557, N
584189, 1622.7472222222223, N
584398, 1623.3277777777778, N
584597, 1623.8805555555555, N
584791, 1624.4194444444445, N
584924, 1624.7888888888888, V
585163, 1625.4527777777778, N
585347, 1625.963888888889, N
585534, 1626.4833333333333, N
585730, 1627.0277777777778, N
585943, 1627.6194444444445, N
586151, 1628.1972222222223, N
586364, 1628.7888888888888, N
586505, 1629.1805555555557, V
586760, 1629.888888888889, N
586943, 1630.3972222222221, N
586981, 1630.5027777777777, ~
587126, 1630.9055555555556, N
587302, 1631.3944444444444, N
587490, 1631.9166666666667, N
587681, 1632.4472222222223, N
587793, 1632.7583333333334, ~
587875, 1632.986111111111, N
588015, 1633.375, V
588260, 1634.0555555555557, N
588449, 1634.5805555555555, N
588646, 1635.1277777777777, N
588850, 1635.6944444444443, N
589044, 1636.2333333333333, N
589223, 1636.7305555555556, N
589367, 1637.1305555555555, V
589579, 1637.7194444444444, N
589760, 1638.2222222222222, N
589952, 1638.7555555555555, N
590144, 1639.2888888888888, N
590343, 1639.8416666666667, N
590544, 1640.4, N
590757, 1640.9916666666666, N
590959, 1641.5527777777777, N
591157, 1642.1027777777779, N
591345, 1642.625, N
591529, 1643.1361111111112, N
591714, 1643.65, N
591913, 1644.2027777777778, N
592106, 1644.7388888888888, N
592313, 1645.3138888888889, N
592511, 1645.8638888888888, N
592717, 1646.4361111111111, N
592915, 1646.986111111111, N
593117, 1647.5472222222222, N
593310, 1648.0833333333333, N
593504, 1648.6222222222223, N
593697, 1649.1583333333333, N
593882, 1649.6722222222222, N
594068, 1650.1888888888889, N
594255, 1650.7083333333333, N
594449, 1651.2472222222223, N
594656, 1651.8222222222223, N
594876, 1652.4333333333334, N
594947, 1652.6305555555555, ~
595088, 1653.0222222222221, N
595291, 1653.5861111111112, N
595414, 1653.9277777777777, V
595671, 1654.6416666666667, F
595790, 1654.9722222222222, V
595889, 1655.2472222222223, ~
596025, 1655.625, N
596200, 1656.111111111111, N
596388, 1656.6333333333334, N
596582, 1657.1722222222222, N
596789, 1657.7472222222223, N
596989, 1658.3027777777777, N
597195, 1658.875, N
597383, 1659.3972222222221, N
597574, 1659.9277777777777, N
597765, 1660.4583333333333, N
597954, 1660.9833333333333, N
598139, 1661.4972222222223, N
598329, 1662.025, N
598512, 1662.5333333333333, N
598702, 1663.0611111111111, N
598905, 1663.625, N
599105, 1664.1805555555557, N
599316, 1664.7666666666667, N
599524, 1665.3444444444444, N
599732, 1665.9222222222222, N
599917, 1666.4361111111111, N
600104, 1666.9555555555555, N
600286, 1667.4611111111112, N
600476, 1667.9888888888888, N
600625, 1668.4027777777778, V
600887, 1669.1305555555555, N
601095, 1669.7083333333333, N
601313, 1670.3138888888889, N
601516, 1670.8777777777777, N
601722, 1671.45, N
601925, 1672.013888888889, N
602110, 1672.5277777777778, N
602297, 1673.0472222222222, N
602482, 1673.5611111111111, N
602681, 1674.1138888888888, N
602873, 1674.6472222222221, N
603078, 1675.2166666666667, N
603278, 1675.7722222222221, N
603438, 1676.2166666666667, V
603697, 1676.9361111111111, N
603914, 1677.5388888888888, N
604116, 1678.1, N
604307, 1678.6305555555555, N
604487, 1679.1305555555555, N
604665, 1679.625, N
604858, 1680.161111111111, N
605012, 1680.588888888889, ~
605045, 1680.6805555555557, N
605253, 1681.2583333333334, N
605414, 1681.7055555555555, V
605670, 1682.4166666666667, N
605755, 1682.6527777777778, ~
605863, 1682.9527777777778, N
606065, 1683.513888888889, N
606250, 1684.0277777777778, N
606434, 1684.5388888888888, N
606618, 1685.05, N
606798, 1685.55, N
606983, 1686.0638888888889, N
607175, 1686.5972222222222, N
607363, 1687.1194444444445, N
607561, 1687.6694444444445, N
607766, 1688.2388888888888, N
607964, 1688.7888888888888, N
608166, 1689.35, N
608364, 1689.9, N
608558, 1690.4388888888889, N
608741, 1690.9472222222223, N
608925, 1691.4583333333333, N
609103, 1691.9527777777778, N
609291, 1692.475, N
609493, 1693.036111111111, N
609708, 1693.6333333333334, N
609916, 1694.2111111111112, N
610130, 1694.8055555555557, N
610324, 1695.3444444444444, N
610523, 1695.8972222222221, N
610712, 1696.4222222222222, N
610895, 1696.9305555555557, N
611083, 1697.4527777777778, N
611271, 1697.975, N
611473, 1698.536111111111, N
611663, 1699.0638888888889, N
611866, 1699.6277777777777, N
612066, 1700.1833333333334, N
612271, 1700.7527777777777, N
612487, 1701.3527777777779, N
612696, 1701.9333333333334, N
612883, 1702.4527777777778, N
613068, 1702.9666666666667, N
613248, 1703.4666666666667, N
613432, 1703.9777777777779, N
613628, 1704.5222222222221, N
613817, 1705.0472222222222, N
614023, 1705.6194444444445, N
614223, 1706.175, N
614445, 1706.7916666666667, N
614649, 1707.3583333333333, N
614851, 1707.9194444444445, N
615038, 1708.4388888888889, N
615224, 1708.9555555555555, N
615409, 1709.4694444444444, N
615568, 1709.911111111111, V
615793, 1710.536111111111, N
615991, 1711.0861111111112, N
616188, 1711.6333333333334, N
616389, 1712.1916666666666, N
616597, 1712.7694444444444, N
616789, 1713.3027777777777, N
616988, 1713.8555555555556, N
617175, 1714.375, N
617362, 1714.8944444444444, N
617540, 1715.388888888889, N
617719, 1715.8861111111112, N
617861, 1716.2805555555556, V
618080, 1716.888888888889, N
618279, 1717.4416666666666, N
618508, 1718.0777777777778, N
618751, 1718.7527777777777, N
618953, 1719.3138888888889, N
619137, 1719.825, N
619320, 1720.3333333333333, N
619503, 1720.8416666666667, N
619682, 1721.338888888889, N
619865, 1721.8472222222222, N
620050, 1722.361111111111, N
620246, 1722.9055555555556, N
620440, 1723.4444444444443, N
620644, 1724.0111111111112, N
620846, 1724.5722222222223, N
621046, 1725.1277777777777, N
621242, 1725.6722222222222, N
621435, 1726.2083333333333, N
621619, 1726.7194444444444, N
621807, 1727.2416666666666, N
621987, 1727.7416666666666, N
622141, 1728.1694444444445, V
622363, 1728.786111111111, N
622561, 1729.3361111111112, N
622758, 1729.8833333333334, N
622971, 1730.475, N
623187, 1731.075, N
623396, 1731.6555555555556, N
623589, 1732.1916666666666, N
623771, 1732.6972222222223, N
623952, 1733.2, N
624137, 1733.713888888889, N
624340, 1734.2777777777778, N
624543, 1734.8416666666667, N
624754, 1735.4277777777777, N
624959, 1735.9972222222223, N
625161, 1736.5583333333334, N
625363, 1737.1194444444445, N
625571, 1737.6972222222223, N
625761, 1738.225, N
625951, 1738.7527777777777, N
626135, 1739.263888888889, N
626320, 1739.7777777777778, N
626506, 1740.2944444444445, N
626699, 1740.8305555555555, N
626892, 1741.3666666666666, N
627092, 1741.9222222222222, N
627299, 1742.4972222222223, N
627508, 1743.0777777777778, N
627706, 1743.6277777777777, N
627895, 1744.1527777777778, N
628074, 1744.65, N
628253, 1745.1472222222221, N
628433, 1745.6472222222221, N
628609, 1746.1361111111112, N
628796, 1746.6555555555556, N
628989, 1747.1916666666666, N
629159, 1747.6638888888888, V
629398, 1748.3277777777778, N
629599, 1748.8861111111112, N
629790, 1749.4166666666667, N
629978, 1749.9388888888889, N
630167, 1750.463888888889, N
630359, 1750.9972222222223, N
630542, 1751.5055555555555, N
630732, 1752.0333333333333, N
630911, 1752.5305555555556, N
631102, 1753.0611111111111, N
631295, 1753.5972222222222, N
631501, 1754.1694444444445, N
631698, 1754.7166666666667, N
631905, 1755.2916666666667, N
632105, 1755.8472222222222, N
632297, 1756.3805555555555, N
632482, 1756.8944444444444, N
632669, 1757.4138888888888, N
632854, 1757.9277777777777, N
633048, 1758.4666666666667, N
633251, 1759.0305555555556, N
633458, 1759.6055555555556, N
633669, 1760.1916666666666, N
633881, 1760.7805555555556, N
634033, 1761.2027777777778, V
634284, 1761.9, N
634478, 1762.4388888888889, N
634657, 1762.9361111111111, N
634844, 1763.4555555555555, N
635034, 1763.9833333333333, N
635236, 1764.5444444444445, N
635432, 1765.088888888889, N
635634, 1765.65, N
635829, 1766.1916666666666, N
635964, 1766.5666666666666, ~
636029, 1766.7472222222223, N
636243, 1767.3416666666667, N
636453, 1767.925, N
636640, 1768.4444444444443, N
636819, 1768.9416666666666, N
636992, 1769.4222222222222, N
637168, 1769.911111111111, N
637298, 1770.2722222222221, ~
637360, 1770.4444444444443, N
637543, 1770.9527777777778, N
637691, 1771.3638888888888, V
637939, 1772.0527777777777, N
638144, 1772.6222222222223, N
638342, 1773.1722222222222, N
638543, 1773.7305555555556, N
638728, 1774.2444444444445, N
638910, 1774.75, N
639094, 1775.2611111111112, N
639279, 1775.775, N
639465, 1776.2916666666667, N
639658, 1776.8277777777778, N
639852, 1777.3666666666666, N
640056, 1777.9333333333334, N
640260, 1778.5, N
640471, 1779.0861111111112, N
640618, 1779.4944444444445, V
640864, 1780.1777777777777, N
641049, 1780.6916666666666, N
641237, 1781.213888888889, N
641419, 1781.7194444444444, N
641610, 1782.25, N
641794, 1782.7611111111112, N
641994, 1783.3166666666666, N
642209, 1783.9138888888888, N
642290, 1784.138888888889, "
642505, 1784.736111111111, N
642723, 1785.3416666666667, N
642926, 1785.9055555555556, N
643111, 1786.4194444444445, N
643294, 1786.9277777777777, N
643481, 1787.4472222222223, N
643664, 1787.9555555555555, N
643864, 1788.5111111111112, N
644067, 1789.075, N
644238, 1789.55, V
644384, 1789.9555555555555, V
644738, 1790.9388888888889, N
644942, 1791.5055555555555, N
645141, 1792.0583333333334, N
645337, 1792.6027777777779, N
645522, 1793.1166666666666, N
645705, 1793.625, N
645895, 1794.1527777777778, N
646082, 1794.6722222222222, N
646279, 1795.2194444444444, N
646489, 1795.8027777777777, N
646688, 1796.3555555555556, N
646897, 1796.9361111111111, N
647105, 1797.513888888889, N
647255, 1797.9305555555557, V
647493, 1798.5916666666667, N
647675, 1799.0972222222222, N
647854, 1799.5944444444444, N
648045, 1800.125, N
648251, 1800.6972222222223, N
648458, 1801.2722222222221, N
648677, 1801.8805555555555, N
648900, 1802.5, N
649108, 1803.0777777777778, N
649304, 1803.6222222222223, N
649501, 1804.1694444444445, N
649685, 1804.6805555555557, N
649875, 1805.2083333333333, N
