102, 0.2833333333333333, +
205, 0.5694444444444444, /
500, 1.3888888888888888, /
812, 2.2555555555555555, /
1131, 3.1416666666666666, /
1439, 3.9972222222222222, /
1736, 4.822222222222222, f
2034, 5.65, /
2325, 6.458333333333333, /
2629, 7.302777777777778, /
2927, 8.130555555555556, /
3236, 8.988888888888889, /
3545, 9.847222222222221, /
3857, 10.713888888888889, /
4154, 11.53888888888889, /
4436, 12.322222222222223, /
4721, 13.113888888888889, /
5023, 13.952777777777778, /
5338, 14.827777777777778, /
5665, 15.73611111111111, /
5969, 16.580555555555556, /
6261, 17.391666666666666, /
6550, 18.194444444444443, /
6853, 19.03611111111111, /
7152, 19.866666666666667, /
7463, 20.730555555555554, /
7775, 21.59722222222222, /
8080, 22.444444444444443, /
8382, 23.283333333333335, /
8674, 24.094444444444445, /
8957, 24.880555555555556, /
9256, 25.711111111111112, /
9556, 26.544444444444444, /
9883, 27.45277777777778, /
10192, 28.31111111111111, /
10491, 29.141666666666666, /
10778, 29.93888888888889, /
11069, 30.747222222222224, /
11361, 31.558333333333334, /
11673, 32.425, /
11998, 33.327777777777776, /
12302, 34.172222222222224, /
12603, 35.00833333333333, /
12898, 35.827777777777776, /
13182, 36.61666666666667, /
13484, 37.455555555555556, /
13696, 38.044444444444444, V
14017, 38.93611111111111, /
14328, 39.8, /
14636, 40.65555555555556, /
14936, 41.48888888888889, /
15222, 42.28333333333333, /
15505, 43.06944444444444, /
15803, 43.897222222222226, /
16124, 44.78888888888889, /
16442, 45.672222222222224, /
16737, 46.49166666666667, /
17038, 47.327777777777776, /
17326, 48.12777777777778, /
17613, 48.925, /
17923, 49.78611111111111, /
18228, 50.63333333333333, /
18536, 51.48888888888889, /
18847, 52.352777777777774, /
19148, 53.18888888888889, /
19440, 54.0, /
19723, 54.78611111111111, /
20017, 55.602777777777774, /
20323, 56.452777777777776, /
20643, 57.34166666666667, /
20954, 58.205555555555556, /
21254, 59.03888888888889, /
21545, 59.84722222222222, /
21825, 60.625, /
22132, 61.477777777777774, /
22445, 62.34722222222222, /
22763, 63.230555555555554, /
23071, 64.08611111111111, /
23376, 64.93333333333334, /
23668, 65.74444444444444, /
23958, 66.55, /
24259, 67.3861111111111, /
24555, 68.20833333333333, /
24866, 69.07222222222222, /
25180, 69.94444444444444, /
25487, 70.79722222222222, /
25783, 71.61944444444444, /
26066, 72.40555555555555, /
26358, 73.21666666666667, /
26657, 74.04722222222222, /
26969, 74.91388888888889, /
27285, 75.79166666666667, /
27591, 76.64166666666667, /
27881, 77.44722222222222, /
28174, 78.2611111111111, /
28471, 79.08611111111111, /
28767, 79.90833333333333, f
28976, 80.4888888888889, V
29297, 81.38055555555556, f
29537, 82.04722222222222, V
29855, 82.93055555555556, /
30154, 83.7611111111111, /
30440, 84.55555555555556, /
30735, 85.375, /
31021, 86.16944444444445, f
31131, 86.475, +
31241, 86.78055555555555, V
31576, 87.71111111111111, f
31823, 88.39722222222223, V
32129, 89.24722222222222, f
32364, 89.9, V
32671, 90.75277777777778, f
32897, 91.38055555555556, V
33058, 91.82777777777778, +
33219, 92.275, /
33538, 93.16111111111111, /
33832, 93.97777777777777, /
34144, 94.84444444444445, /
34443, 95.675, /
34733, 96.48055555555555, /
35024, 97.28888888888889, /
35317, 98.10277777777777, /
35619, 98.94166666666666, /
35928, 99.8, /
36239, 100.66388888888889, /
36538, 101.49444444444444, /
36825, 102.29166666666667, /
37109, 103.08055555555555, /
37401, 103.89166666666667, /
37725, 104.79166666666667, /
38040, 105.66666666666667, /
38339, 106.49722222222222, /
38640, 107.33333333333333, /
38930, 108.13888888888889, /
39221, 108.94722222222222, /
39525, 109.79166666666667, /
39832, 110.64444444444445, /
40148, 111.52222222222223, /
40454, 112.37222222222222, /
40701, 113.05833333333334, V
41003, 113.89722222222223, f
41302, 114.72777777777777, /
41591, 115.53055555555555, /
41900, 116.38888888888889, /
42216, 117.26666666666667, /
42525, 118.125, /
42833, 118.98055555555555, /
43126, 119.79444444444445, /
43407, 120.575, /
43709, 121.41388888888889, /
44032, 122.31111111111112, /
44363, 123.23055555555555, /
44670, 124.08333333333333, /
44976, 124.93333333333334, /
45264, 125.73333333333333, /
45556, 126.54444444444445, /
45866, 127.40555555555555, /
46179, 128.275, /
46492, 129.14444444444445, /
46807, 130.01944444444445, /
47116, 130.87777777777777, /
47412, 131.7, /
47690, 132.47222222222223, /
47978, 133.2722222222222, /
48279, 134.10833333333332, /
48593, 134.98055555555555, /
48913, 135.86944444444444, /
49219, 136.71944444444443, /
49509, 137.525, /
49800, 138.33333333333334, /
50101, 139.16944444444445, /
50405, 140.01388888888889, /
50716, 140.87777777777777, /
51026, 141.73888888888888, /
51328, 142.57777777777778, /
51631, 143.41944444444445, /
51925, 144.23611111111111, /
52213, 145.0361111111111, /
52514, 145.87222222222223, /
52824, 146.73333333333332, /
53144, 147.62222222222223, /
53451, 148.475, /
53745, 149.29166666666666, /
54030, 150.08333333333334, /
54320, 150.88888888888889, /
54616, 151.7111111111111, /
54935, 152.59722222222223, /
55254, 153.48333333333332, /
55555, 154.31944444444446, /
55857, 155.15833333333333, /
56155, 155.98611111111111, /
56442, 156.78333333333333, /
56739, 157.60833333333332, /
57040, 158.44444444444446, /
57355, 159.31944444444446, /
57661, 160.16944444444445, f
57864, 160.73333333333332, V
58172, 161.5888888888889, f
58442, 162.3388888888889, N
58735, 163.15277777777777, f
59048, 164.0222222222222, /
59370, 164.91666666666666, /
59687, 165.79722222222222, /
59988, 166.63333333333333, /
60286, 167.4611111111111, /
60572, 168.25555555555556, /
60864, 169.06666666666666, /
61173, 169.925, /
61482, 170.78333333333333, /
61788, 171.63333333333333, /
62098, 172.49444444444444, /
62402, 173.3388888888889, /
62689, 174.13611111111112, /
62980, 174.94444444444446, /
63272, 175.75555555555556, /
63580, 176.61111111111111, /
63904, 177.51111111111112, /
64213, 178.36944444444444, /
64512, 179.2, /
64795, 179.98611111111111, f
65074, 180.76111111111112, f
65361, 181.55833333333334, N
65559, 182.10833333333332, V
65903, 183.0638888888889, /
66209, 183.9138888888889, /
66517, 184.76944444444445, /
66809, 185.58055555555555, /
67096, 186.37777777777777, f
67227, 186.74166666666667, +
67358, 187.10555555555555, N
67613, 187.8138888888889, N
67804, 188.34444444444443, V
67966, 188.79444444444445, +
68129, 189.24722222222223, /
68442, 190.11666666666667, /
68746, 190.9611111111111, /
69040, 191.77777777777777, /
69321, 192.55833333333334, /
69613, 193.36944444444444, /
69908, 194.1888888888889, /
70220, 195.05555555555554, /
70535, 195.93055555555554, /
70841, 196.78055555555557, /
71131, 197.5861111111111, /
71421, 198.39166666666668, /
71718, 199.21666666666667, /
72019, 200.05277777777778, /
72327, 200.90833333333333, /
72635, 201.76388888888889, /
72937, 202.6027777777778, /
73235, 203.43055555555554, f
73534, 204.26111111111112, /
73810, 205.02777777777777, f
74105, 205.84722222222223, f
74393, 206.6472222222222, N
74611, 207.25277777777777, V
74945, 208.18055555555554, f
75241, 209.00277777777777, f
75530, 209.80555555555554, f
75720, 210.33333333333334, V
76026, 211.18333333333334, /
76325, 212.01388888888889, /
76652, 212.92222222222222, /
76960, 213.77777777777777, /
77260, 214.61111111111111, /
77560, 215.44444444444446, /
77856, 216.26666666666668, /
78141, 217.05833333333334, f
78441, 217.89166666666668, /
78746, 218.73888888888888, /
79060, 219.61111111111111, /
79370, 220.47222222222223, /
79671, 221.30833333333334, /
79959, 222.10833333333332, /
80251, 222.91944444444445, /
80542, 223.7277777777778, /
80859, 224.60833333333332, /
81180, 225.5, /
81486, 226.35, /
81784, 227.17777777777778, /
82080, 228.0, /
82366, 228.79444444444445, /
82666, 229.62777777777777, /
82983, 230.50833333333333, /
83302, 231.39444444444445, /
83605, 232.23611111111111, /
83912, 233.0888888888889, /
84208, 233.9111111111111, /
84505, 234.73611111111111, /
84799, 235.55277777777778, /
85099, 236.38611111111112, f
85304, 236.95555555555555, V
85631, 237.86388888888888, f
85888, 238.57777777777778, V
86196, 239.43333333333334, f
86493, 240.25833333333333, /
86781, 241.05833333333334, /
87092, 241.92222222222222, /
87416, 242.82222222222222, /
87727, 243.6861111111111, /
88033, 244.5361111111111, /
88335, 245.375, /
88623, 246.175, /
88918, 246.99444444444444, /
89216, 247.82222222222222, /
89526, 248.68333333333334, /
89837, 249.54722222222222, /
90150, 250.41666666666666, /
90451, 251.25277777777777, /
90743, 252.0638888888889, /
91028, 252.85555555555555, /
91330, 253.69444444444446, /
91639, 254.55277777777778, /
91962, 255.45, /
92269, 256.3027777777778, /
92571, 257.14166666666665, /
92850, 257.9166666666667, f
93140, 258.72222222222223, f
93332, 259.25555555555553, V
93655, 260.15277777777777, /
93890, 260.80555555555554, V
94215, 261.7083333333333, f
94358, 262.10555555555555, +
94501, 262.5027777777778, N
94787, 263.2972222222222, N
95070, 264.0833333333333, N
95361, 264.89166666666665, f
95628, 265.6333333333333, N
95809, 266.1361111111111, V
95977, 266.60277777777776, +
96146, 267.0722222222222, /
96462, 267.95, /
96771, 268.80833333333334, /
97061, 269.6138888888889, /
97344, 270.4, /
97634, 271.2055555555556, /
97939, 272.0527777777778, /
98269, 272.96944444444443, /
98582, 273.8388888888889, /
98881, 274.6694444444444, /
99182, 275.50555555555553, /
99478, 276.3277777777778, /
99774, 277.15, /
100068, 277.96666666666664, /
100383, 278.84166666666664, /
100695, 279.7083333333333, /
101008, 280.5777777777778, /
101312, 281.4222222222222, /
101601, 282.225, /
101885, 283.0138888888889, /
102183, 283.84166666666664, /
102512, 284.75555555555553, /
102835, 285.65277777777777, /
103135, 286.4861111111111, /
103431, 287.30833333333334, /
103721, 288.1138888888889, /
104012, 288.9222222222222, /
104316, 289.76666666666665, /
104632, 290.64444444444445, /
104946, 291.51666666666665, /
105253, 292.36944444444447, /
105555, 293.2083333333333, f
105659, 293.4972222222222, +
105764, 293.7888888888889, V
106068, 294.6333333333333, /
106308, 295.3, V
106626, 296.18333333333334, /
106861, 296.8361111111111, V
107026, 297.2944444444444, +
107191, 297.7527777777778, f
107500, 298.6111111111111, f
107712, 299.2, V
108028, 300.0777777777778, /
108309, 300.85833333333335, /
108613, 301.7027777777778, /
108931, 302.5861111111111, /
109245, 303.4583333333333, /
109540, 304.27777777777777, /
109842, 305.1166666666667, /
110132, 305.9222222222222, /
110420, 306.72222222222223, /
110712, 307.53333333333336, /
111012, 308.3666666666667, /
111317, 309.2138888888889, /
111632, 310.0888888888889, /
111933, 310.925, /
112227, 311.7416666666667, f
112509, 312.525, f
112684, 313.0111111111111, V
113000, 313.8888888888889, /
113256, 314.6, V
113589, 315.525, f
113886, 316.35, f
114183, 317.175, f
114469, 317.96944444444443, f
114770, 318.80555555555554, /
115070, 319.6388888888889, /
115377, 320.4916666666667, /
115692, 321.3666666666667, /
115999, 322.21944444444443, /
116297, 323.0472222222222, /
116593, 323.86944444444447, /
116882, 324.6722222222222, /
117180, 325.5, /
117480, 326.3333333333333, /
117797, 327.2138888888889, /
118111, 328.0861111111111, /
118418, 328.93888888888887, /
118705, 329.7361111111111, /
118987, 330.51944444444445, /
119279, 331.3305555555556, /
119587, 332.18611111111113, /
119917, 333.10277777777776, /
120228, 333.96666666666664, /
120516, 334.76666666666665, /
120823, 335.61944444444447, /
121119, 336.44166666666666, /
121414, 337.2611111111111, /
121717, 338.10277777777776, /
122028, 338.96666666666664, /
122340, 339.8333333333333, /
122647, 340.68611111111113, /
122946, 341.51666666666665, /
123232, 342.31111111111113, /
123525, 343.125, /
123821, 343.9472222222222, /
124148, 344.85555555555555, /
124475, 345.7638888888889, /
124781, 346.6138888888889, /
125074, 347.4277777777778, /
125364, 348.23333333333335, /
125641, 349.0027777777778, f
125852, 349.5888888888889, V
126193, 350.5361111111111, f
126493, 351.36944444444447, V
126812, 352.25555555555553, /
127116, 353.1, /
127412, 353.9222222222222, /
127699, 354.71944444444443, /
127995, 355.5416666666667, /
128298, 356.3833333333333, /
128618, 357.27222222222224, /
128930, 358.1388888888889, /
129236, 358.9888888888889, /
129526, 359.7944444444444, /
129810, 360.5833333333333, /
130100, 361.3888888888889, /
130421, 362.28055555555557, /
130749, 363.19166666666666, /
131058, 364.05, /
131362, 364.89444444444445, /
131656, 365.7111111111111, /
131942, 366.50555555555553, /
132243, 367.34166666666664, /
132555, 368.2083333333333, /
132872, 369.0888888888889, /
133181, 369.9472222222222, /
133495, 370.81944444444446, /
133788, 371.6333333333333, /
134076, 372.43333333333334, /
134364, 373.23333333333335, /
134669, 374.0805555555556, /
134929, 374.8027777777778, V
135265, 375.7361111111111, /
135525, 376.4583333333333, V
135693, 376.925, V
135999, 377.775, /
136283, 378.56388888888887, /
136592, 379.4222222222222, /
136905, 380.2916666666667, /
137230, 381.19444444444446, /
137540, 382.05555555555554, /
137846, 382.90555555555557, /
138139, 383.71944444444443, /
138429, 384.525, /
138724, 385.34444444444443, /
139032, 386.2, /
139353, 387.09166666666664, /
139548, 387.6333333333333, V
139873, 388.5361111111111, /
140176, 389.3777777777778, /
140461, 390.1694444444444, /
140750, 390.97222222222223, /
141048, 391.8, /
141370, 392.69444444444446, /
141732, 393.7, /
142039, 394.5527777777778, /
142329, 395.35833333333335, /
142621, 396.1694444444444, /
142927, 397.01944444444445, /
143235, 397.875, /
143555, 398.7638888888889, /
143876, 399.65555555555557, /
144177, 400.4916666666667, /
144482, 401.3388888888889, /
144774, 402.15, /
145064, 402.9555555555556, /
145357, 403.76944444444445, /
145672, 404.64444444444445, /
146008, 405.5777777777778, /
146315, 406.43055555555554, /
146609, 407.2472222222222, /
146896, 408.0444444444444, /
147182, 408.8388888888889, /
147479, 409.6638888888889, f
147582, 409.95, +
147685, 410.2361111111111, V
148018, 411.1611111111111, f
148269, 411.85833333333335, V
148587, 412.7416666666667, /
148846, 413.4611111111111, V
149155, 414.31944444444446, /
149396, 414.9888888888889, V
149560, 415.44444444444446, V
149727, 415.90833333333336, +
149894, 416.3722222222222, f
150197, 417.2138888888889, f
150515, 418.09722222222223, f
150825, 418.9583333333333, /
151114, 419.7611111111111, /
151399, 420.5527777777778, /
151688, 421.35555555555555, /
151995, 422.2083333333333, /
152325, 423.125, /
152642, 424.00555555555553, /
152940, 424.8333333333333, /
153237, 425.65833333333336, /
153522, 426.45, /
153813, 427.2583333333333, /
154122, 428.1166666666667, /
154437, 428.9916666666667, /
154740, 429.8333333333333, /
154940, 430.3888888888889, +
155038, 430.6611111111111, V
155202, 431.1166666666667, V
155367, 431.575, V
155573, 432.14722222222224, +
155667, 432.40833333333336, /
155956, 433.2111111111111, /
156253, 434.0361111111111, /
156564, 434.9, /
156807, 435.575, V
157119, 436.44166666666666, f
157428, 437.3, f
157556, 437.65555555555557, +
157684, 438.0111111111111, N
157957, 438.76944444444445, N
158238, 439.55, N
158553, 440.425, f
158717, 440.88055555555553, +
158881, 441.3361111111111, /
159186, 442.18333333333334, /
159491, 443.03055555555557, /
159714, 443.65, V
160020, 444.5, /
160321, 445.3361111111111, /
160623, 446.175, /
160937, 447.0472222222222, /
161252, 447.9222222222222, /
161563, 448.7861111111111, /
161860, 449.6111111111111, /
162091, 450.2527777777778, V
162388, 451.0777777777778, f
162688, 451.9111111111111, f
163015, 452.81944444444446, /
163338, 453.71666666666664, /
163580, 454.3888888888889, V
163890, 455.25, f
164181, 456.05833333333334, /
164482, 456.89444444444445, /
164790, 457.75, /
165035, 458.43055555555554, V
165190, 458.8611111111111, V
165513, 459.7583333333333, f
165653, 460.14722222222224, +
165794, 460.5388888888889, N
166085, 461.34722222222223, N
166365, 462.125, N
166665, 462.9583333333333, f
166885, 463.56944444444446, V
167043, 464.0083333333333, +
167202, 464.45, /
167523, 465.34166666666664, /
167838, 466.21666666666664, /
168143, 467.06388888888887, /
168372, 467.7, V
168663, 468.5083333333333, /
168971, 469.3638888888889, /
169276, 470.2111111111111, /
169540, 470.94444444444446, V
169872, 471.8666666666667, f
170179, 472.71944444444443, /
170469, 473.525, f
170765, 474.34722222222223, f
171045, 475.125, N
171357, 475.9916666666667, f
171505, 476.40277777777777, +
171654, 476.81666666666666, N
171955, 477.65277777777777, N
172267, 478.51944444444445, f
172421, 478.9472222222222, +
172576, 479.3777777777778, /
172864, 480.1777777777778, /
173156, 480.9888888888889, /
173446, 481.7944444444444, /
173762, 482.6722222222222, /
174101, 483.6138888888889, /
174406, 484.4611111111111, /
174700, 485.27777777777777, /
174985, 486.06944444444446, f
175279, 486.8861111111111, /
175582, 487.72777777777776, /
175910, 488.6388888888889, /
176232, 489.53333333333336, /
176533, 490.36944444444447, /
176841, 491.225, /
177134, 492.0388888888889, /
177426, 492.85, f
177721, 493.6694444444444, f
177930, 494.25, V
178268, 495.18888888888887, f
178545, 495.9583333333333, N
178867, 496.85277777777776, /
179159, 497.6638888888889, /
179446, 498.4611111111111, /
179736, 499.26666666666665, /
180055, 500.15277777777777, /
180395, 501.09722222222223, /
180713, 501.98055555555555, /
181019, 502.8305555555556, /
181316, 503.65555555555557, /
181603, 504.4527777777778, /
181908, 505.3, /
182222, 506.1722222222222, /
182556, 507.1, /
182866, 507.9611111111111, /
183186, 508.85, /
183469, 509.6361111111111, /
183758, 510.43888888888887, /
184002, 511.1166666666667, V
184322, 512.0055555555556, /
184646, 512.9055555555556, /
184976, 513.8222222222222, f
185272, 514.6444444444444, f
185579, 515.4972222222223, /
185863, 516.2861111111112, /
186163, 517.1194444444444, /
186470, 517.9722222222222, f
186808, 518.9111111111112, /
187119, 519.775, /
187427, 520.6305555555556, /
187721, 521.4472222222222, /
188010, 522.25, /
188307, 523.075, /
188606, 523.9055555555556, /
188913, 524.7583333333333, /
189238, 525.6611111111112, /
189544, 526.5111111111111, /
189845, 527.3472222222222, /
190130, 528.1388888888889, /
190420, 528.9444444444445, /
190715, 529.7638888888889, /
191028, 530.6333333333333, /
191360, 531.5555555555555, /
191665, 532.4027777777778, /
191960, 533.2222222222222, /
192253, 534.0361111111112, /
192547, 534.8527777777778, /
192847, 535.6861111111111, /
193147, 536.5194444444444, /
193467, 537.4083333333333, /
193773, 538.2583333333333, /
194077, 539.1027777777778, /
194377, 539.9361111111111, /
194663, 540.7305555555556, /
194952, 541.5333333333333, /
195259, 542.3861111111111, /
195588, 543.3, /
195902, 544.1722222222222, /
196202, 545.0055555555556, /
196484, 545.7888888888889, f
196776, 546.6, f
196974, 547.15, V
197296, 548.0444444444445, /
197564, 548.7888888888889, V
197882, 549.6722222222222, N
198182, 550.5055555555556, f
198461, 551.2805555555556, N
198770, 552.1388888888889, /
199064, 552.9555555555555, /
199358, 553.7722222222222, /
199664, 554.6222222222223, /
199979, 555.4972222222223, /
200291, 556.3638888888889, /
200596, 557.2111111111111, /
200882, 558.0055555555556, /
201170, 558.8055555555555, /
201455, 559.5972222222222, /
201783, 560.5083333333333, f
202118, 561.4388888888889, f
202417, 562.2694444444444, f
202640, 562.8888888888889, V
202956, 563.7666666666667, /
203241, 564.5583333333333, /
203542, 565.3944444444444, /
203855, 566.2638888888889, /
204185, 567.1805555555555, /
204490, 568.0277777777778, /
204801, 568.8916666666667, /
205097, 569.7138888888888, /
205385, 570.5138888888889, /
205679, 571.3305555555555, /
205978, 572.1611111111112, /
206290, 573.0277777777778, /
206609, 573.9138888888889, /
206919, 574.775, /
207212, 575.5888888888888, /
207496, 576.3777777777777, /
207785, 577.1805555555555, /
208102, 578.0611111111111, /
208421, 578.9472222222222, /
208726, 579.7944444444445, /
209032, 580.6444444444444, /
209330, 581.4722222222222, /
209618, 582.2722222222222, /
209916, 583.1, /
210212, 583.9222222222222, /
210521, 584.7805555555556, /
210836, 585.6555555555556, /
211149, 586.525, /
211448, 587.3555555555556, /
211744, 588.1777777777778, /
212027, 588.9638888888888, /
212312, 589.7555555555556, /
212632, 590.6444444444444, /
212952, 591.5333333333333, /
213259, 592.3861111111111, /
213561, 593.225, /
213846, 594.0166666666667, /
214142, 594.8388888888888, /
214438, 595.6611111111112, f
214525, 595.9027777777778, +
214613, 596.1472222222222, V
214941, 597.0583333333333, /
215239, 597.8861111111111, V
215549, 598.7472222222223, f
215790, 599.4166666666666, V
215943, 599.8416666666667, +
216096, 600.2666666666667, f
216388, 601.0777777777778, f
216686, 601.9055555555556, f
216990, 602.75, f
217327, 603.6861111111111, /
217634, 604.5388888888889, /
217932, 605.3666666666667, /
218214, 606.15, /
218509, 606.9694444444444, /
218810, 607.8055555555555, /
219126, 608.6833333333333, /
219451, 609.5861111111111, /
219754, 610.4277777777778, /
220049, 611.2472222222223, /
220349, 612.0805555555555, /
220644, 612.9, /
220945, 613.7361111111111, /
221258, 614.6055555555556, /
221588, 615.5222222222222, /
221893, 616.3694444444444, /
222197, 617.2138888888888, /
222485, 618.0138888888889, /
222774, 618.8166666666667, /
223071, 619.6416666666667, /
223391, 620.5305555555556, /
223749, 621.525, /
224059, 622.3861111111111, /
224353, 623.2027777777778, /
224642, 624.0055555555556, /
224924, 624.7888888888889, f
225231, 625.6416666666667, /
225553, 626.5361111111112, /
225878, 627.4388888888889, /
226179, 628.275, /
226488, 629.1333333333333, /
226782, 629.95, /
227070, 630.75, /
227366, 631.5722222222222, /
227670, 632.4166666666666, /
227981, 633.2805555555556, /
228297, 634.1583333333333, /
228602, 635.0055555555556, /
228892, 635.8111111111111, /
229175, 636.5972222222222, /
229476, 637.4333333333333, /
229795, 638.3194444444445, /
230127, 639.2416666666667, /
230430, 640.0833333333334, /
230732, 640.9222222222222, /
231024, 641.7333333333333, /
231310, 642.5277777777778, /
231612, 643.3666666666667, /
231916, 644.2111111111111, /
232221, 645.0583333333333, /
232536, 645.9333333333333, /
232844, 646.7888888888889, /
233136, 647.6, /
233418, 648.3833333333333, /
233706, 649.1833333333333, /
234004, 650.0111111111111, /
234324, 650.9, /
234646, 651.7944444444445, /
234948, 652.6333333333333, /
235243, 653.4527777777778, /
235531, 654.2527777777777, /
235830, 655.0833333333334, /
236135, 655.9305555555555, /
236442, 656.7833333333333, /
236756, 657.6555555555556, /
237057, 658.4916666666667, /
237353, 659.3138888888889, /
237649, 660.1361111111111, /
237943, 660.9527777777778, /
238239, 661.775, /
238544, 662.6222222222223, /
238875, 663.5416666666666, /
239178, 664.3833333333333, /
239476, 665.2111111111111, /
239762, 666.0055555555556, /
240052, 666.8111111111111, /
240346, 667.6277777777777, /
240658, 668.4944444444444, /
240985, 669.4027777777778, /
241293, 670.2583333333333, /
241590, 671.0833333333334, /
241886, 671.9055555555556, /
242183, 672.7305555555556, /
242484, 673.5666666666667, /
242789, 674.4138888888889, /
243111, 675.3083333333333, /
243415, 676.1527777777778, /
243719, 676.9972222222223, /
244015, 677.8194444444445, /
244298, 678.6055555555556, /
244589, 679.4138888888889, /
244896, 680.2666666666667, /
245222, 681.1722222222222, /
245534, 682.0388888888889, /
245832, 682.8666666666667, /
246123, 683.675, /
246411, 684.475, /
246707, 685.2972222222222, /
247015, 686.1527777777778, /
247331, 687.0305555555556, /
247640, 687.8888888888889, /
247940, 688.7222222222222, /
248243, 689.5638888888889, /
248530, 690.3611111111111, /
248824, 691.1777777777778, /
249121, 692.0027777777777, /
249433, 692.8694444444444, /
249741, 693.725, /
250053, 694.5916666666667, /
250352, 695.4222222222222, /
250640, 696.2222222222222, /
250856, 696.8222222222222, V
251164, 697.6777777777778, f
251492, 698.5888888888888, /
251823, 699.5083333333333, f
252100, 700.2777777777778, f
252282, 700.7833333333333, V
252454, 701.2611111111111, V
252747, 702.075, f
253049, 702.9138888888889, f
253333, 703.7027777777778, f
253430, 703.9722222222222, +
253527, 704.2416666666667, V
253857, 705.1583333333333, /
254097, 705.825, V
254421, 706.725, f
254661, 707.3916666666667, V
254814, 707.8166666666667, +
254967, 708.2416666666667, /
255259, 709.0527777777778, /
255472, 709.6444444444444, V
255785, 710.5138888888889, /
256111, 711.4194444444445, /
256420, 712.2777777777778, /
256718, 713.1055555555556, /
257007, 713.9083333333333, /
257295, 714.7083333333334, /
257606, 715.5722222222222, /
257919, 716.4416666666667, /
258233, 717.3138888888889, /
258543, 718.175, /
258846, 719.0166666666667, /
259139, 719.8305555555555, /
259388, 720.5222222222222, V
259714, 721.4277777777778, f
260012, 722.2555555555556, /
260326, 723.1277777777777, /
260647, 724.0194444444444, /
260888, 724.6888888888889, V
261203, 725.5638888888889, /
261486, 726.35, /
261760, 727.1111111111111, V
262079, 727.9972222222223, /
262410, 728.9166666666666, /
262753, 729.8694444444444, /
263060, 730.7222222222222, /
263301, 731.3916666666667, V
263609, 732.2472222222223, /
263918, 733.1055555555556, /
264227, 733.9638888888888, /
264540, 734.8333333333334, /
264858, 735.7166666666667, /
265094, 736.3722222222223, V
265413, 737.2583333333333, /
265709, 738.0805555555555, /
265999, 738.8861111111111, /
266289, 739.6916666666667, /
266604, 740.5666666666667, /
266867, 741.2972222222222, V
267186, 742.1833333333333, f
267480, 743.0, f
267778, 743.8277777777778, f
268065, 744.625, f
268233, 745.0916666666667, V
268535, 745.9305555555555, /
268859, 746.8305555555555, /
269178, 747.7166666666667, /
269477, 748.5472222222222, /
269596, 748.8777777777777, +
269715, 749.2083333333334, V
270029, 750.0805555555555, /
270270, 750.75, V
270581, 751.6138888888889, /
270822, 752.2833333333333, V
271159, 753.2194444444444, /
271406, 753.9055555555556, V
271569, 754.3583333333333, +
271733, 754.8138888888889, /
272022, 755.6166666666667, f
272308, 756.4111111111112, /
272601, 757.225, /
272913, 758.0916666666667, /
273236, 758.9888888888889, /
273554, 759.8722222222223, /
273855, 760.7083333333334, /
274150, 761.5277777777778, /
274384, 762.1777777777778, V
274689, 763.025, f
274992, 763.8666666666667, f
275318, 764.7722222222222, /
275618, 765.6055555555556, f
275936, 766.4888888888889, /
276237, 767.325, /
276523, 768.1194444444444, /
276811, 768.9194444444445, /
277109, 769.7472222222223, /
277412, 770.5888888888888, /
277671, 771.3083333333333, V
278004, 772.2333333333333, /
278300, 773.0555555555555, /
278590, 773.8611111111111, /
278879, 774.6638888888889, /
279186, 775.5166666666667, /
279501, 776.3916666666667, /
279733, 777.0361111111112, V
280062, 777.95, /
280369, 778.8027777777778, /
280663, 779.6194444444444, /
280952, 780.4222222222222, /
281251, 781.2527777777777, /
281554, 782.0944444444444, f
281869, 782.9694444444444, /
282192, 783.8666666666667, /
282498, 784.7166666666667, /
282736, 785.3777777777777, V
282922, 785.8944444444444, ~
283039, 786.2194444444444, /
283336, 787.0444444444445, /
283616, 787.8222222222222, /
283878, 788.55, ~
283949, 788.7472222222223, /
284197, 789.4361111111111, V
284514, 790.3166666666667, f
284647, 790.6861111111111, +
284781, 791.0583333333333, N
285065, 791.8472222222222, N
285330, 792.5833333333334, N
285630, 793.4166666666666, N
285882, 794.1166666666667, N
286148, 794.8555555555556, N
286438, 795.6611111111112, N
286696, 796.3777777777777, N
286959, 797.1083333333333, N
287144, 797.6222222222223, V
287419, 798.3861111111111, N
287695, 799.1527777777778, N
287952, 799.8666666666667, N
288215, 800.5972222222222, N
288487, 801.3527777777778, N
288789, 802.1916666666667, f
289041, 802.8916666666667, N
289286, 803.5722222222222, N
289435, 803.9861111111111, +
289584, 804.4, /
289873, 805.2027777777778, /
290177, 806.0472222222222, /
290487, 806.9083333333333, f
290618, 807.2722222222222, +
290750, 807.6388888888889, N
291025, 808.4027777777778, N
291268, 809.0777777777778, N
291560, 809.8888888888889, N
291862, 810.7277777777778, f
292132, 811.4777777777778, N
292375, 812.1527777777778, N
292642, 812.8944444444444, N
292890, 813.5833333333334, N
293194, 814.4277777777778, f
293466, 815.1833333333333, N
293739, 815.9416666666667, N
294039, 816.775, f
294310, 817.5277777777778, N
294608, 818.3555555555556, N
294811, 818.9194444444445, V
295146, 819.85, f
295298, 820.2722222222222, +
295451, 820.6972222222222, /
295746, 821.5166666666667, /
296031, 822.3083333333333, /
296325, 823.125, /
296634, 823.9833333333333, /
296948, 824.8555555555556, /
297257, 825.7138888888888, /
297563, 826.5638888888889, /
297864, 827.4, f
298119, 828.1083333333333, N
298299, 828.6083333333333, V
298616, 829.4888888888889, f
298753, 829.8694444444444, +
298891, 830.2527777777777, N
299142, 830.95, N
299415, 831.7083333333334, N
299667, 832.4083333333333, N
299971, 833.2527777777777, f
300237, 833.9916666666667, N
300485, 834.6805555555555, N
300578, 834.9388888888889, +
300671, 835.1972222222222, V
301002, 836.1166666666667, f
301236, 836.7666666666667, V
301578, 837.7166666666667, f
301806, 838.35, V
301963, 838.7861111111112, +
302121, 839.225, f
302406, 840.0166666666667, f
302717, 840.8805555555556, f
302980, 841.6111111111111, N
303304, 842.5111111111111, f
303575, 843.2638888888889, N
303844, 844.0111111111111, N
304042, 844.5611111111111, V
304345, 845.4027777777778, f
304410, 845.5833333333334, ~
304560, 846.0, V
304865, 846.8472222222222, /
305152, 847.6444444444444, f
305354, 848.2055555555555, ~
305474, 848.5388888888889, f
305637, 848.9916666666667, +
305800, 849.4444444444445, /
306106, 850.2944444444445, /
306401, 851.1138888888889, f
306666, 851.85, N
306846, 852.35, V
307164, 853.2333333333333, f
307295, 853.5972222222222, +
307427, 853.9638888888888, N
307732, 854.8111111111111, N
308001, 855.5583333333333, N
308319, 856.4416666666667, f
308614, 857.2611111111111, f
308911, 858.0861111111111, /
309199, 858.8861111111111, f
309352, 859.3111111111111, +
309506, 859.7388888888889, /
309815, 860.5972222222222, /
310148, 861.5222222222222, /
310452, 862.3666666666667, /
310746, 863.1833333333333, f
310852, 863.4777777777778, +
310958, 863.7722222222222, V
311255, 864.5972222222222, f
311505, 865.2916666666666, V
311835, 866.2083333333334, /
312130, 867.0277777777778, V
312452, 867.9222222222222, f
312696, 868.6, V
312852, 869.0333333333333, +
313009, 869.4694444444444, /
313303, 870.2861111111112, /
313605, 871.125, /
313903, 871.9527777777778, /
314218, 872.8277777777778, /
314537, 873.7138888888888, /
314844, 874.5666666666667, /
315147, 875.4083333333333, /
315438, 876.2166666666667, /
315726, 877.0166666666667, /
316033, 877.8694444444444, /
316376, 878.8222222222222, f
316518, 879.2166666666667, +
316661, 879.6138888888889, N
316936, 880.3777777777777, N
317249, 881.2472222222223, f
317527, 882.0194444444444, f
317821, 882.8361111111111, f
318114, 883.65, N
318385, 884.4027777777778, N
318676, 885.2111111111111, N
318976, 886.0444444444445, N
319293, 886.925, f
319570, 887.6944444444445, N
319750, 888.1944444444445, V
320030, 888.9722222222222, N
320322, 889.7833333333333, N
320525, 890.3472222222222, V
320854, 891.2611111111111, f
321168, 892.1333333333333, f
321324, 892.5666666666667, +
321480, 893.0, /
321768, 893.8, /
322050, 894.5833333333334, /
322359, 895.4416666666667, /
322612, 896.1444444444444, V
322957, 897.1027777777778, N
323279, 897.9972222222223, f
323558, 898.7722222222222, N
323863, 899.6194444444444, /
324155, 900.4305555555555, /
324461, 901.2805555555556, /
324684, 901.9, V
325025, 902.8472222222222, f
325324, 903.6777777777778, f
325547, 904.2972222222222, V
325839, 905.1083333333333, N
326136, 905.9333333333333, f
326414, 906.7055555555555, f
326545, 907.0694444444445, +
326677, 907.4361111111111, N
326915, 908.0972222222222, N
327217, 908.9361111111111, N
327501, 909.725, N
327761, 910.4472222222222, N
328064, 911.2888888888889, f
328311, 911.975, N
328523, 912.5638888888889, V
328843, 913.4527777777778, f
329099, 914.1638888888889, N
329412, 915.0333333333333, N
329722, 915.8944444444444, f
330018, 916.7166666666667, N
330285, 917.4583333333334, N
330462, 917.95, V
330618, 918.3833333333333, +
330775, 918.8194444444445, /
331073, 919.6472222222222, /
331368, 920.4666666666667, /
331685, 921.3472222222222, /
331998, 922.2166666666667, f
332199, 922.775, V
332481, 923.5583333333333, N
332772, 924.3666666666667, f
332903, 924.7305555555556, +
333034, 925.0944444444444, N
333288, 925.8, N
333591, 926.6416666666667, N
333925, 927.5694444444445, f
334213, 928.3694444444444, N
334492, 929.1444444444444, N
334744, 929.8444444444444, N
334925, 930.3472222222222, V
335237, 931.2138888888888, f
335512, 931.9777777777778, N
335757, 932.6583333333333, N
336018, 933.3833333333333, N
336288, 934.1333333333333, N
336561, 934.8916666666667, N
336793, 935.5361111111112, N
337037, 936.2138888888888, N
337275, 936.875, N
337582, 937.7277777777778, f
337852, 938.4777777777778, N
338059, 939.0527777777778, V
338352, 939.8666666666667, N
338616, 940.6, N
338853, 941.2583333333333, N
339146, 942.0722222222222, f
339320, 942.5555555555555, V
339608, 943.3555555555556, N
339802, 943.8944444444444, V
340152, 944.8666666666667, /
340446, 945.6833333333333, N
340696, 946.3777777777777, N
340962, 947.1166666666667, N
341216, 947.8222222222222, N
341368, 948.2444444444444, +
341521, 948.6694444444445, /
341819, 949.4972222222223, /
342131, 950.3638888888889, f
342271, 950.7527777777777, +
342411, 951.1416666666667, N
342691, 951.9194444444445, N
342959, 952.6638888888889, N
343246, 953.4611111111111, N
343500, 954.1666666666666, N
343801, 955.0027777777777, f
344067, 955.7416666666667, N
344413, 956.7027777777778, f
344732, 957.5888888888888, f
345002, 958.3388888888888, N
345196, 958.8777777777777, V
345500, 959.7222222222222, f
345787, 960.5194444444444, f
345943, 960.9527777777778, +
346100, 961.3888888888889, /
346414, 962.2611111111111, /
346737, 963.1583333333333, f
346941, 963.725, V
347106, 964.1833333333333, V
347439, 965.1083333333333, f
347566, 965.4611111111111, +
347693, 965.8138888888889, N
347932, 966.4777777777778, N
348194, 967.2055555555555, N
348465, 967.9583333333334, N
348743, 968.7305555555556, N
349024, 969.5111111111111, N
349324, 970.3444444444444, N
349570, 971.0277777777778, N
349805, 971.6805555555555, N
349947, 972.075, +
350090, 972.4722222222222, /
350410, 973.3611111111111, /
350719, 974.2194444444444, f
350868, 974.6333333333333, +
351017, 975.0472222222222, N
351275, 975.7638888888889, N
351599, 976.6638888888889, f
351872, 977.4222222222222, f
352135, 978.1527777777778, N
352389, 978.8583333333333, N
352584, 979.4, V
352900, 980.2777777777778, f
353151, 980.975, N
353412, 981.7, N
353673, 982.425, N
353933, 983.1472222222222, N
354182, 983.8388888888888, N
354418, 984.4944444444444, N
354680, 985.2222222222222, N
354928, 985.9111111111112, N
355209, 986.6916666666667, N
355565, 987.6805555555555, f
355859, 988.4972222222223, f
356153, 989.3138888888889, f
356394, 989.9833333333333, N
356628, 990.6333333333333, N
356869, 991.3027777777778, N
357128, 992.0222222222222, N
357387, 992.7416666666667, N
357679, 993.5527777777778, N
357941, 994.2805555555556, N
358166, 994.9055555555556, N
358395, 995.5416666666666, N
358692, 996.3666666666667, f
358938, 997.05, N
359122, 997.5611111111111, V
359416, 998.3777777777777, N
359631, 998.975, V
359989, 999.9694444444444, f
360292, 1000.8111111111111, f
360562, 1001.5611111111111, N
360820, 1002.2777777777778, N
361042, 1002.8944444444444, N
361291, 1003.5861111111111, N
361562, 1004.3388888888888, N
361910, 1005.3055555555555, N
362107, 1005.8527777777778, V
362395, 1006.6527777777778, N
362634, 1007.3166666666667, N
362924, 1008.1222222222223, N
363168, 1008.8, N
363404, 1009.4555555555555, N
363637, 1010.1027777777778, N
363944, 1010.9555555555555, N
364238, 1011.7722222222222, N
364442, 1012.3388888888888, V
364767, 1013.2416666666667, f
365033, 1013.9805555555556, N
365264, 1014.6222222222223, N
365501, 1015.2805555555556, N
365743, 1015.9527777777778, N
365956, 1016.5444444444445, V
366266, 1017.4055555555556, N
366555, 1018.2083333333334, N
366824, 1018.9555555555555, N
367127, 1019.7972222222222, /
367403, 1020.5638888888889, f
367663, 1021.2861111111112, N
367854, 1021.8166666666667, V
368030, 1022.3055555555555, V
368349, 1023.1916666666667, N
368596, 1023.8777777777777, N
368756, 1024.3222222222223, +
368917, 1024.7694444444444, /
369219, 1025.6083333333333, /
369504, 1026.4, f
369761, 1027.1138888888888, N
370005, 1027.7916666666667, V
370155, 1028.2083333333333, V
370479, 1029.1083333333333, f
370725, 1029.7916666666667, V
370854, 1030.15, +
370984, 1030.5111111111112, N
371223, 1031.175, N
371406, 1031.6833333333334, V
371664, 1032.4, N
371956, 1033.2111111111112, f
372212, 1033.9222222222222, N
372524, 1034.7888888888888, N
372729, 1035.3583333333333, V
373052, 1036.2555555555555, f
373301, 1036.9472222222223, N
373474, 1037.4277777777777, V
373770, 1038.25, f
374032, 1038.9777777777779, N
374305, 1039.736111111111, N
374621, 1040.6138888888888, f
374806, 1041.1277777777777, V
375131, 1042.0305555555556, f
375439, 1042.8861111111112, /
375682, 1043.5611111111111, V
375978, 1044.3833333333334, f
376253, 1045.1472222222221, N
376514, 1045.8722222222223, N
376789, 1046.6361111111112, N
376958, 1047.1055555555556, +
377127, 1047.575, /
377439, 1048.4416666666666, /
377738, 1049.2722222222221, /
378009, 1050.025, f
378125, 1050.3472222222222, +
378241, 1050.6694444444445, N
378486, 1051.35, N
378737, 1052.0472222222222, N
378985, 1052.736111111111, V
379302, 1053.6166666666666, f
379457, 1054.0472222222222, +
379612, 1054.4777777777779, /
379910, 1055.3055555555557, /
380198, 1056.1055555555556, f
380504, 1056.9555555555555, /
380793, 1057.7583333333334, f
380915, 1058.0972222222222, +
381038, 1058.4388888888889, N
381313, 1059.2027777777778, N
381565, 1059.9027777777778, N
381882, 1060.7833333333333, f
382134, 1061.4833333333333, N
382393, 1062.2027777777778, N
382635, 1062.875, N
382905, 1063.625, N
383179, 1064.3861111111112, N
383487, 1065.2416666666666, N
383688, 1065.8, V
384004, 1066.6777777777777, f
384321, 1067.5583333333334, f
384594, 1068.3166666666666, f
384802, 1068.8944444444444, V
385124, 1069.7888888888888, f
385400, 1070.5555555555557, N
385694, 1071.3722222222223, N
386017, 1072.2694444444444, f
386282, 1073.0055555555555, N
386523, 1073.675, N
386673, 1074.0916666666667, +
386824, 1074.5111111111112, /
387123, 1075.3416666666667, /
387419, 1076.1638888888888, /
387738, 1077.05, f
388067, 1077.963888888889, /
388370, 1078.8055555555557, /
388662, 1079.6166666666666, /
388949, 1080.4138888888888, /
389235, 1081.2083333333333, /
389546, 1082.0722222222223, /
389877, 1082.9916666666666, f
390094, 1083.5944444444444, V
390424, 1084.5111111111112, f
390651, 1085.1416666666667, V
390956, 1085.9888888888888, f
391074, 1086.3166666666666, +
391193, 1086.6472222222221, N
391449, 1087.3583333333333, N
391741, 1088.1694444444445, N
391906, 1088.6277777777777, +
392072, 1089.088888888889, /
392387, 1089.963888888889, /
392690, 1090.8055555555557, f
392818, 1091.161111111111, +
392947, 1091.5194444444444, N
393212, 1092.2555555555555, N
393389, 1092.7472222222223, V
393690, 1093.5833333333333, f
393894, 1094.15, V
394253, 1095.1472222222221, /
394566, 1096.0166666666667, f
394838, 1096.7722222222221, N
395030, 1097.3055555555557, V
395329, 1098.1361111111112, f
395481, 1098.5583333333334, +
395634, 1098.9833333333333, /
395943, 1099.8416666666667, /
396261, 1100.725, /
396585, 1101.625, /
396892, 1102.4777777777779, /
397197, 1103.325, /
397488, 1104.1333333333334, /
397776, 1104.9333333333334, /
398075, 1105.763888888889, /
398389, 1106.6361111111112, f
398655, 1107.375, N
398980, 1108.2777777777778, /
399276, 1109.1, f
399574, 1109.9277777777777, /
399859, 1110.7194444444444, /
400171, 1111.5861111111112, /
400499, 1112.4972222222223, /
400852, 1113.4777777777779, f
401157, 1114.325, f
401466, 1115.1833333333334, /
401756, 1115.9888888888888, /
402055, 1116.8194444444443, /
402359, 1117.6638888888888, /
402683, 1118.5638888888889, /
403010, 1119.4722222222222, /
403319, 1120.3305555555555, /
403623, 1121.175, /
403913, 1121.9805555555556, /
404198, 1122.7722222222221, /
404498, 1123.6055555555556, /
404806, 1124.4611111111112, /
405133, 1125.3694444444445, /
405448, 1126.2444444444445, /
405747, 1127.075, /
406034, 1127.8722222222223, /
406329, 1128.6916666666666, /
406630, 1129.5277777777778, /
406940, 1130.388888888889, /
407260, 1131.2777777777778, /
407568, 1132.1333333333334, /
407867, 1132.963888888889, /
408163, 1133.786111111111, /
408450, 1134.5833333333333, /
408745, 1135.4027777777778, /
409043, 1136.2305555555556, /
409364, 1137.1222222222223, /
409685, 1138.013888888889, /
409992, 1138.8666666666666, /
410278, 1139.661111111111, /
410563, 1140.4527777777778, /
410850, 1141.25, /
411152, 1142.088888888889, /
411484, 1143.0111111111112, /
411801, 1143.8916666666667, /
412098, 1144.7166666666667, /
412397, 1145.5472222222222, /
412690, 1146.361111111111, /
412988, 1147.1888888888889, /
413284, 1148.0111111111112, /
413596, 1148.8777777777777, /
413911, 1149.7527777777777, /
414222, 1150.6166666666666, /
414522, 1151.45, /
414806, 1152.2388888888888, /
415093, 1153.036111111111, /
415386, 1153.85, /
415718, 1154.7722222222221, /
416048, 1155.6888888888889, /
416346, 1156.5166666666667, /
416643, 1157.3416666666667, /
416923, 1158.1194444444445, /
417225, 1158.9583333333333, /
417528, 1159.8, /
417851, 1160.6972222222223, f
418157, 1161.5472222222222, f
418464, 1162.4, f
418751, 1163.1972222222223, N
419048, 1164.0222222222221, f
419342, 1164.838888888889, f
419641, 1165.6694444444445, /
419946, 1166.5166666666667, /
420266, 1167.4055555555556, /
420577, 1168.2694444444444, /
420870, 1169.0833333333333, /
421175, 1169.9305555555557, /
421458, 1170.7166666666667, /
421760, 1171.5555555555557, /
422088, 1172.4666666666667, /
422430, 1173.4166666666667, /
422732, 1174.2555555555555, /
423033, 1175.0916666666667, /
423320, 1175.888888888889, /
423613, 1176.7027777777778, /
423924, 1177.5666666666666, /
424229, 1178.4138888888888, /
424554, 1179.3166666666666, /
424863, 1180.175, /
425171, 1181.0305555555556, /
425466, 1181.85, /
425752, 1182.6444444444444, /
426041, 1183.4472222222223, /
426349, 1184.3027777777777, /
426669, 1185.1916666666666, /
426980, 1186.0555555555557, /
427282, 1186.8944444444444, /
427575, 1187.7083333333333, /
427858, 1188.4944444444445, /
428168, 1189.3555555555556, /
428473, 1190.2027777777778, /
428794, 1191.0944444444444, /
429099, 1191.9416666666666, f
429411, 1192.8083333333334, /
429704, 1193.6222222222223, /
429997, 1194.4361111111111, /
430295, 1195.263888888889, /
430599, 1196.1083333333333, /
430907, 1196.963888888889, /
431213, 1197.8138888888889, f
431506, 1198.6277777777777, N
431814, 1199.4833333333333, f
431944, 1199.8444444444444, +
432074, 1200.2055555555555, N
432333, 1200.925, N
432598, 1201.661111111111, N
432916, 1202.5444444444445, f
433088, 1203.0222222222221, +
433260, 1203.5, /
433565, 1204.3472222222222, /
433858, 1205.161111111111, /
434145, 1205.9583333333333, f
434449, 1206.8027777777777, f
434734, 1207.5944444444444, N
435059, 1208.4972222222223, /
435379, 1209.3861111111112, /
435685, 1210.236111111111, /
435991, 1211.0861111111112, /
436286, 1211.9055555555556, /
436576, 1212.7111111111112, /
436878, 1213.55, /
437173, 1214.3694444444445, f
437522, 1215.338888888889, /
437839, 1216.2194444444444, /
438128, 1217.0222222222221, f
438418, 1217.8277777777778, f
438719, 1218.6638888888888, /
439021, 1219.5027777777777, /
439341, 1220.3916666666667, /
439670, 1221.3055555555557, f
439976, 1222.1555555555556, f
440280, 1223.0, f
440589, 1223.8583333333333, /
440880, 1224.6666666666667, /
441180, 1225.5, f
441501, 1226.3916666666667, f
441831, 1227.3083333333334, /
442145, 1228.1805555555557, /
442449, 1229.025, /
442737, 1229.825, /
443029, 1230.6361111111112, /
443328, 1231.4666666666667, /
443651, 1232.3638888888888, /
443987, 1233.2972222222222, /
444296, 1234.1555555555556, /
444595, 1234.986111111111, /
444889, 1235.8027777777777, /
445172, 1236.588888888889, f
445477, 1237.4361111111111, f
445808, 1238.3555555555556, /
446127, 1239.2416666666666, /
446434, 1240.0944444444444, /
446745, 1240.9583333333333, /
447035, 1241.763888888889, /
447324, 1242.5666666666666, /
447624, 1243.4, /
447923, 1244.2305555555556, f
448208, 1245.0222222222221, N
448408, 1245.5777777777778, V
448728, 1246.4666666666667, /
449029, 1247.3027777777777, f
449312, 1248.088888888889, /
449602, 1248.8944444444444, /
449909, 1249.7472222222223, f
450232, 1250.6444444444444, /
450531, 1251.475, f
450847, 1252.3527777777779, f
451120, 1253.111111111111, N
451414, 1253.9277777777777, f
451722, 1254.7833333333333, /
452019, 1255.6083333333333, /
452322, 1256.45, /
452639, 1257.3305555555555, /
452955, 1258.2083333333333, /
453255, 1259.0416666666667, /
453544, 1259.8444444444444, /
453831, 1260.6416666666667, /
454131, 1261.475, /
454443, 1262.3416666666667, /
454768, 1263.2444444444445, /
455081, 1264.1138888888888, /
455383, 1264.9527777777778, /
455669, 1265.7472222222223, /
455964, 1266.5666666666666, /
456270, 1267.4166666666667, /
456581, 1268.2805555555556, f
456899, 1269.1638888888888, f
457210, 1270.0277777777778, /
457510, 1270.861111111111, /
457810, 1271.6944444444443, f
457931, 1272.0305555555556, +
458052, 1272.3666666666666, N
458335, 1273.1527777777778, N
458530, 1273.6944444444443, V
458857, 1274.6027777777779, f
459176, 1275.4888888888888, N
459335, 1275.9305555555557, +
459494, 1276.3722222222223, /
459790, 1277.1944444444443, /
460076, 1277.9888888888888, /
460368, 1278.8, /
460670, 1279.638888888889, /
460981, 1280.5027777777777, f
461322, 1281.45, f
461621, 1282.2805555555556, f
461919, 1283.1083333333333, /
462219, 1283.9416666666666, /
462511, 1284.7527777777777, /
462811, 1285.5861111111112, /
463119, 1286.4416666666666, /
463438, 1287.3277777777778, /
463740, 1288.1666666666667, /
464045, 1289.013888888889, /
464338, 1289.8277777777778, /
464627, 1290.6305555555555, /
464918, 1291.4388888888889, /
465225, 1292.2916666666667, /
465558, 1293.2166666666667, /
465873, 1294.0916666666667, /
466169, 1294.9138888888888, /
466461, 1295.725, /
466746, 1296.5166666666667, /
467044, 1297.3444444444444, /
467367, 1298.2416666666666, /
467687, 1299.1305555555555, /
467992, 1299.9777777777779, /
468299, 1300.8305555555555, /
468598, 1301.661111111111, /
468884, 1302.4555555555555, /
469173, 1303.2583333333334, /
469474, 1304.0944444444444, /
469790, 1304.9722222222222, /
470103, 1305.8416666666667, /
470406, 1306.6833333333334, f
470704, 1307.5111111111112, /
470993, 1308.3138888888889, /
471281, 1309.1138888888888, /
471590, 1309.9722222222222, /
471912, 1310.8666666666666, /
472224, 1311.7333333333333, /
472527, 1312.575, /
472831, 1313.4194444444445, /
473114, 1314.2055555555555, /
473412, 1315.0333333333333, /
473719, 1315.8861111111112, /
474035, 1316.763888888889, /
474350, 1317.638888888889, /
474660, 1318.5, /
474960, 1319.3333333333333, /
475245, 1320.125, f
475541, 1320.9472222222223, /
475844, 1321.7888888888888, /
476156, 1322.6555555555556, /
476483, 1323.5638888888889, /
476790, 1324.4166666666667, /
477093, 1325.2583333333334, /
477376, 1326.0444444444445, /
477674, 1326.8722222222223, /
477989, 1327.7472222222223, /
478330, 1328.6944444444443, /
478658, 1329.6055555555556, /
478965, 1330.4583333333333, /
479261, 1331.2805555555556, /
479554, 1332.0944444444444, /
479857, 1332.9361111111111, /
480162, 1333.7833333333333, /
480473, 1334.6472222222221, /
480810, 1335.5833333333333, /
481119, 1336.4416666666666, /
481419, 1337.275, /
481705, 1338.0694444444443, /
481999, 1338.8861111111112, /
482304, 1339.7333333333333, /
482628, 1340.6333333333334, /
482964, 1341.5666666666666, /
483270, 1342.4166666666667, /
483566, 1343.2388888888888, /
483858, 1344.05, /
483993, 1344.425, +
484128, 1344.8, N
484408, 1345.5777777777778, N
484601, 1346.1138888888888, V
484771, 1346.5861111111112, V
485103, 1347.5083333333334, f
485352, 1348.2, N
485580, 1348.8333333333333, N
485824, 1349.5111111111112, N
486052, 1350.1444444444444, N
486292, 1350.8111111111111, N
486503, 1351.3972222222221, N
486731, 1352.0305555555556, N
486982, 1352.7277777777779, N
487242, 1353.45, N
487483, 1354.1194444444445, N
487715, 1354.763888888889, N
487945, 1355.4027777777778, N
488177, 1356.0472222222222, N
488428, 1356.7444444444445, N
488683, 1357.4527777777778, N
488897, 1358.0472222222222, V
489225, 1358.9583333333333, f
489490, 1359.6944444444443, N
489745, 1360.4027777777778, N
490012, 1361.1444444444444, N
490267, 1361.8527777777779, N
490499, 1362.4972222222223, N
490727, 1363.1305555555555, N
491037, 1363.9916666666666, f
491336, 1364.8222222222223, N
491498, 1365.2722222222221, +
491661, 1365.725, /
491971, 1366.5861111111112, /
492267, 1367.4083333333333, /
492545, 1368.1805555555557, f
492844, 1369.0111111111112, /
493151, 1369.8638888888888, /
493468, 1370.7444444444445, /
493787, 1371.6305555555555, f
494093, 1372.4805555555556, /
494398, 1373.3277777777778, f
494675, 1374.0972222222222, f
494969, 1374.9138888888888, f
495281, 1375.7805555555556, /
495599, 1376.6638888888888, /
495911, 1377.5305555555556, /
496220, 1378.388888888889, /
496524, 1379.2333333333333, /
496811, 1380.0305555555556, /
497101, 1380.8361111111112, /
497403, 1381.675, /
497705, 1382.513888888889, /
498036, 1383.4333333333334, /
498346, 1384.2944444444445, /
498632, 1385.088888888889, /
498932, 1385.9222222222222, /
499229, 1386.7472222222223, /
499538, 1387.6055555555556, /
499863, 1388.5083333333334, f
500191, 1389.4194444444445, f
500487, 1390.2416666666666, f
500794, 1391.0944444444444, /
501080, 1391.888888888889, f
501385, 1392.736111111111, /
501686, 1393.5722222222223, /
501987, 1394.4083333333333, /
502308, 1395.3, /
502629, 1396.1916666666666, /
502929, 1397.025, /
503210, 1397.8055555555557, f
503496, 1398.6, f
503775, 1399.375, N
503875, 1399.6527777777778, +
503976, 1399.9333333333334, V
504307, 1400.8527777777779, f
504558, 1401.55, V
504872, 1402.4222222222222, f
505092, 1403.0333333333333, V
505242, 1403.45, +
505393, 1403.8694444444445, f
505688, 1404.6888888888889, f
505988, 1405.5222222222221, f
506290, 1406.361111111111, f
506606, 1407.2388888888888, /
506918, 1408.1055555555556, /
507219, 1408.9416666666666, /
507516, 1409.7666666666667, /
507804, 1410.5666666666666, /
508099, 1411.3861111111112, /
508397, 1412.213888888889, /
508722, 1413.1166666666666, /
509030, 1413.9722222222222, /
509335, 1414.8194444444443, /
509626, 1415.6277777777777, /
509912, 1416.4222222222222, /
510201, 1417.225, /
510505, 1418.0694444444443, /
510828, 1418.9666666666667, /
511143, 1419.8416666666667, /
511437, 1420.6583333333333, f
511738, 1421.4944444444445, f
512036, 1422.3222222222223, /
512329, 1423.1361111111112, /
512620, 1423.9444444444443, /
512934, 1424.8166666666666, /
513243, 1425.675, /
513550, 1426.5277777777778, /
513853, 1427.3694444444445, /
514139, 1428.1638888888888, /
514423, 1428.9527777777778, /
514726, 1429.7944444444445, /
515049, 1430.6916666666666, /
515375, 1431.5972222222222, /
515676, 1432.4333333333334, /
515971, 1433.2527777777777, /
516261, 1434.0583333333334, /
516556, 1434.8777777777777, /
516862, 1435.7277777777779, /
517176, 1436.6, /
517495, 1437.486111111111, /
517800, 1438.3333333333333, /
518109, 1439.1916666666666, /
518398, 1439.9944444444445, /
518685, 1440.7916666666667, /
518983, 1441.6194444444445, /
519297, 1442.4916666666666, /
519624, 1443.4, /
519939, 1444.275, /
520194, 1444.9833333333333, V
520499, 1445.8305555555555, /
520752, 1446.5333333333333, V
521078, 1447.4388888888889, /
521405, 1448.3472222222222, /
521765, 1449.3472222222222, /
522069, 1450.1916666666666, /
522374, 1451.0388888888888, /
522587, 1451.6305555555555, V
522892, 1452.4777777777779, /
523200, 1453.3333333333333, /
523509, 1454.1916666666666, /
523822, 1455.0611111111111, /
524141, 1455.9472222222223, /
524382, 1456.6166666666666, V
524697, 1457.4916666666666, /
524977, 1458.2694444444444, /
525272, 1459.088888888889, /
525571, 1459.9194444444445, /
525829, 1460.6361111111112, V
526181, 1461.6138888888888, /
526481, 1462.4472222222223, /
526776, 1463.2666666666667, /
527069, 1464.0805555555555, /
527367, 1464.9083333333333, /
527589, 1465.525, V
527919, 1466.4416666666666, /
528235, 1467.3194444444443, /
528545, 1468.1805555555557, /
528849, 1469.025, /
529060, 1469.611111111111, V
529367, 1470.463888888889, /
529667, 1471.2972222222222, /
529960, 1472.111111111111, /
530289, 1473.025, /
530609, 1473.9138888888888, /
530849, 1474.5805555555555, V
531165, 1475.4583333333333, /
531450, 1476.25, /
531736, 1477.0444444444445, /
532045, 1477.9027777777778, /
532291, 1478.5861111111112, V
532631, 1479.5305555555556, /
532935, 1480.375, /
533235, 1481.2083333333333, /
533528, 1482.0222222222221, /
533823, 1482.8416666666667, /
534050, 1483.4722222222222, V
534364, 1484.3444444444444, f
534698, 1485.2722222222221, /
535008, 1486.1333333333334, /
535312, 1486.9777777777779, /
535606, 1487.7944444444445, /
535889, 1488.5805555555555, /
536184, 1489.4, /
536506, 1490.2944444444445, /
536833, 1491.2027777777778, /
537142, 1492.0611111111111, /
537394, 1492.7611111111112, V
537704, 1493.6222222222223, /
537991, 1494.4194444444445, /
538295, 1495.263888888889, /
538605, 1496.125, /
538927, 1497.0194444444444, /
539179, 1497.7194444444444, V
539504, 1498.6222222222223, /
539802, 1499.45, /
540095, 1500.263888888889, /
540385, 1501.0694444444443, /
540691, 1501.9194444444445, /
540941, 1502.6138888888888, V
541286, 1503.5722222222223, /
541599, 1504.4416666666666, /
541897, 1505.2694444444444, /
542180, 1506.0555555555557, /
542404, 1506.6777777777777, V
542733, 1507.5916666666667, /
543045, 1508.4583333333333, /
543369, 1509.3583333333333, /
543676, 1510.2111111111112, /
543976, 1511.0444444444445, /
544225, 1511.736111111111, V
544534, 1512.5944444444444, /
544829, 1513.4138888888888, /
545134, 1514.2611111111112, /
545444, 1515.1222222222223, /
545760, 1516.0, /
546007, 1516.6861111111111, V
546320, 1517.5555555555557, /
546601, 1518.3361111111112, /
546895, 1519.1527777777778, /
547190, 1519.9722222222222, /
547507, 1520.8527777777779, /
547765, 1521.5694444444443, V
548087, 1522.463888888889, /
548381, 1523.2805555555556, /
548673, 1524.0916666666667, /
548974, 1524.9277777777777, /
549270, 1525.75, /
549507, 1526.4083333333333, V
549836, 1527.3222222222223, /
550142, 1528.1722222222222, /
550447, 1529.0194444444444, /
550739, 1529.8305555555555, /
551025, 1530.625, /
551262, 1531.2833333333333, V
551574, 1532.15, /
551893, 1533.036111111111, /
552214, 1533.9277777777777, /
552520, 1534.7777777777778, /
552811, 1535.5861111111112, /
553033, 1536.2027777777778, V
553334, 1537.0388888888888, /
553635, 1537.875, /
553961, 1538.7805555555556, /
554277, 1539.6583333333333, /
554502, 1540.2833333333333, V
554821, 1541.1694444444445, /
555116, 1541.9888888888888, /
555408, 1542.8, /
555708, 1543.6333333333334, /
556009, 1544.4694444444444, /
556332, 1545.3666666666666, /
556641, 1546.225, /
556943, 1547.0638888888889, /
557235, 1547.875, /
557525, 1548.6805555555557, /
557813, 1549.4805555555556, /
558129, 1550.3583333333333, /
558460, 1551.2777777777778, /
558770, 1552.138888888889, /
559071, 1552.975, /
559364, 1553.7888888888888, /
559646, 1554.5722222222223, /
559951, 1555.4194444444445, /
560265, 1556.2916666666667, /
560591, 1557.1972222222223, /
560901, 1558.0583333333334, /
561205, 1558.9027777777778, /
561499, 1559.7194444444444, /
561789, 1560.525, /
562083, 1561.3416666666667, /
562388, 1562.1888888888889, /
562704, 1563.0666666666666, /
563021, 1563.9472222222223, /
563328, 1564.8, /
563624, 1565.6222222222223, /
563903, 1566.3972222222221, /
564197, 1567.213888888889, /
564519, 1568.1083333333333, /
564847, 1569.0194444444444, /
565158, 1569.8833333333334, /
565463, 1570.7305555555556, /
565754, 1571.5388888888888, /
566043, 1572.3416666666667, /
566350, 1573.1944444444443, /
566650, 1574.0277777777778, /
566965, 1574.9027777777778, /
567285, 1575.7916666666667, /
567594, 1576.65, /
567893, 1577.4805555555556, /
568173, 1578.2583333333334, /
568463, 1579.0638888888889, /
568766, 1579.9055555555556, /
569087, 1580.7972222222222, /
569413, 1581.7027777777778, /
569715, 1582.5416666666667, /
570008, 1583.3555555555556, /
570294, 1584.15, /
570598, 1584.9944444444445, /
570897, 1585.825, /
571213, 1586.7027777777778, /
571532, 1587.588888888889, /
571834, 1588.4277777777777, /
572138, 1589.2722222222221, /
572431, 1590.0861111111112, /
572722, 1590.8944444444444, /
573021, 1591.725, /
573332, 1592.588888888889, /
573671, 1593.5305555555556, /
573978, 1594.3833333333334, /
574273, 1595.2027777777778, /
574558, 1595.9944444444445, /
574852, 1596.8111111111111, /
575154, 1597.65, /
575478, 1598.55, /
575816, 1599.4888888888888, /
576115, 1600.3194444444443, /
576417, 1601.1583333333333, /
576717, 1601.9916666666666, /
577008, 1602.8, /
577308, 1603.6333333333334, /
577616, 1604.4888888888888, /
577943, 1605.3972222222221, /
578252, 1606.2555555555555, /
578559, 1607.1083333333333, /
578846, 1607.9055555555556, /
579134, 1608.7055555555555, /
579430, 1609.5277777777778, /
579752, 1610.4222222222222, /
580099, 1611.3861111111112, /
580404, 1612.2333333333333, /
580702, 1613.0611111111111, /
580996, 1613.8777777777777, /
581190, 1614.4166666666667, |
581285, 1614.6805555555557, /
581586, 1615.5166666666667, /
581898, 1616.3833333333334, /
582220, 1617.2777777777778, /
582523, 1618.1194444444445, /
582834, 1618.9833333333333, /
583123, 1619.786111111111, /
583409, 1620.5805555555555, /
583707, 1621.4083333333333, /
584012, 1622.2555555555555, /
584332, 1623.1444444444444, /
584639, 1623.9972222222223, f
584949, 1624.8583333333333, /
585243, 1625.675, /
585520, 1626.4444444444443, f
585719, 1626.9972222222223, V
586045, 1627.9027777777778, /
586365, 1628.7916666666667, f
586684, 1629.6777777777777, f
586978, 1630.4944444444445, f
587277, 1631.325, f
587572, 1632.1444444444444, /
587871, 1632.975, /
588166, 1633.7944444444445, /
588471, 1634.6416666666667, /
588791, 1635.5305555555556, /
589104, 1636.4, /
589402, 1637.2277777777779, /
589688, 1638.0222222222221, /
589972, 1638.8111111111111, /
590268, 1639.6333333333334, /
590579, 1640.4972222222223, /
590897, 1641.3805555555555, /
591203, 1642.2305555555556, /
591504, 1643.0666666666666, /
591793, 1643.8694444444445, /
592088, 1644.6888888888889, /
592390, 1645.5277777777778, /
592697, 1646.3805555555555, /
593012, 1647.2555555555555, /
593325, 1648.125, /
593621, 1648.9472222222223, /
593917, 1649.7694444444444, /
594208, 1650.5777777777778, /
594503, 1651.3972222222221, /
594805, 1652.236111111111, /
595127, 1653.1305555555555, /
595447, 1654.0194444444444, /
595754, 1654.8722222222223, /
596043, 1655.675, /
596329, 1656.4694444444444, /
596623, 1657.286111111111, /
596931, 1658.1416666666667, /
597267, 1659.075, /
597585, 1659.9583333333333, /
597875, 1660.763888888889, f
598171, 1661.5861111111112, f
598473, 1662.425, /
598772, 1663.2555555555555, /
599072, 1664.088888888889, /
599389, 1664.9694444444444, /
599707, 1665.8527777777779, /
600014, 1666.7055555555555, /
600315, 1667.5416666666667, /
600599, 1668.3305555555555, /
600891, 1669.1416666666667, /
601194, 1669.9833333333333, /
601523, 1670.8972222222221, f
601748, 1671.5222222222221, V
602071, 1672.4194444444445, /
602301, 1673.0583333333334, V
602610, 1673.9166666666667, /
602895, 1674.7083333333333, /
603191, 1675.5305555555556, /
603509, 1676.4138888888888, /
603834, 1677.3166666666666, /
604135, 1678.1527777777778, /
604444, 1679.0111111111112, /
604741, 1679.8361111111112, /
605030, 1680.638888888889, /
605324, 1681.4555555555555, /
605627, 1682.2972222222222, /
605943, 1683.175, /
606260, 1684.0555555555557, /
606568, 1684.911111111111, /
606858, 1685.7166666666667, /
607143, 1686.5083333333334, /
607438, 1687.3277777777778, /
607756, 1688.2111111111112, /
608085, 1689.125, /
608392, 1689.9777777777779, /
608697, 1690.825, /
608991, 1691.6416666666667, /
609280, 1692.4444444444443, /
609583, 1693.286111111111, /
609888, 1694.1333333333334, /
610195, 1694.986111111111, /
610513, 1695.8694444444445, /
610824, 1696.7333333333333, /
611118, 1697.55, /
611405, 1698.3472222222222, /
611694, 1699.15, /
611994, 1699.9833333333333, /
612318, 1700.8833333333334, /
612644, 1701.7888888888888, /
612947, 1702.6305555555555, /
613242, 1703.45, /
613532, 1704.2555555555555, /
613836, 1705.1, /
614146, 1705.9611111111112, /
614458, 1706.8277777777778, /
614776, 1707.7111111111112, /
615083, 1708.5638888888889, /
615383, 1709.3972222222221, /
615678, 1710.2166666666667, /
615971, 1711.0305555555556, /
616269, 1711.8583333333333, /
616588, 1712.7444444444445, /
616928, 1713.6888888888889, /
617232, 1714.5333333333333, /
617529, 1715.3583333333333, /
617819, 1716.1638888888888, /
618105, 1716.9583333333333, /
618412, 1717.8111111111111, /
618747, 1718.7416666666666, /
619074, 1719.65, /
619378, 1720.4944444444445, /
619677, 1721.325, /
619971, 1722.1416666666667, /
620276, 1722.9888888888888, /
620574, 1723.8166666666666, /
620889, 1724.6916666666666, /
621214, 1725.5944444444444, /
621522, 1726.45, /
621827, 1727.2972222222222, /
622117, 1728.1027777777779, /
622402, 1728.8944444444444, /
622698, 1729.7166666666667, /
623028, 1730.6333333333334, /
623353, 1731.536111111111, /
623655, 1732.375, /
623955, 1733.2083333333333, /
624243, 1734.0083333333334, /
624538, 1734.8277777777778, /
624841, 1735.6694444444445, /
625147, 1736.5194444444444, /
625468, 1737.411111111111, /
625774, 1738.2611111111112, /
626083, 1739.1194444444445, /
626377, 1739.9361111111111, /
626658, 1740.7166666666667, /
626950, 1741.5277777777778, /
627260, 1742.388888888889, /
627575, 1743.263888888889, /
627885, 1744.125, /
628190, 1744.9722222222222, /
628481, 1745.7805555555556, /
628765, 1746.5694444444443, /
629070, 1747.4166666666667, /
629378, 1748.2722222222221, /
629701, 1749.1694444444445, /
630010, 1750.0277777777778, /
630312, 1750.8666666666666, /
630608, 1751.6888888888889, /
630898, 1752.4944444444445, /
631193, 1753.3138888888889, /
631493, 1754.1472222222221, /
631805, 1755.013888888889, /
632128, 1755.911111111111, /
632441, 1756.7805555555556, /
632733, 1757.5916666666667, /
633016, 1758.3777777777777, /
633312, 1759.2, /
633611, 1760.0305555555556, /
633933, 1760.925, /
634258, 1761.8277777777778, /
634562, 1762.6722222222222, /
634853, 1763.4805555555556, /
635146, 1764.2944444444445, /
635442, 1765.1166666666666, /
635749, 1765.9694444444444, /
636061, 1766.8361111111112, /
636374, 1767.7055555555555, /
636678, 1768.55, /
636981, 1769.3916666666667, /
637271, 1770.1972222222223, /
637566, 1771.0166666666667, /
637861, 1771.8361111111112, /
638173, 1772.7027777777778, /
638514, 1773.65, /
638820, 1774.5, /
639113, 1775.3138888888889, /
639403, 1776.1194444444445, /
639696, 1776.9333333333334, /
639996, 1777.7666666666667, /
640326, 1778.6833333333334, /
640652, 1779.588888888889, /
640956, 1780.4333333333334, /
641259, 1781.275, /
641554, 1782.0944444444444, /
641851, 1782.9194444444445, /
642151, 1783.7527777777777, /
642454, 1784.5944444444444, /
642775, 1785.486111111111, /
643084, 1786.3444444444444, /
643384, 1787.1777777777777, /
643675, 1787.986111111111, /
643966, 1788.7944444444445, /
644254, 1789.5944444444444, /
644575, 1790.486111111111, /
644899, 1791.3861111111112, /
645206, 1792.2388888888888, /
645506, 1793.0722222222223, /
645800, 1793.888888888889, /
646084, 1794.6777777777777, /
646388, 1795.5222222222221, /
646701, 1796.3916666666667, /
647019, 1797.275, /
647324, 1798.1222222222223, /
647629, 1798.9694444444444, /
647923, 1799.786111111111, /
648212, 1800.588888888889, /
648506, 1801.4055555555556, /
648805, 1802.236111111111, /
649114, 1803.0944444444444, /
649429, 1803.9694444444444, /
649738, 1804.8277777777778, /
