188, 0.5222222222222223, +
300, 0.8333333333333334, N
614, 1.7055555555555555, N
887, 2.463888888888889, N
1206, 3.35, N
1417, 3.936111111111111, N
1708, 4.7444444444444445, N
1924, 5.344444444444444, N
2207, 6.1305555555555555, N
2478, 6.883333333333334, N
2724, 7.566666666666666, N
3011, 8.363888888888889, N
3230, 8.972222222222221, N
3457, 9.602777777777778, N
3864, 10.733333333333333, N
4277, 11.880555555555556, N
4580, 12.722222222222221, N
4903, 13.619444444444444, N
5205, 14.458333333333334, N
5571, 15.475, N
5847, 16.241666666666667, N
6059, 16.830555555555556, N
6355, 17.65277777777778, N
6687, 18.575, N
7118, 19.772222222222222, N
7387, 20.519444444444446, N
7800, 21.666666666666668, N
8212, 22.81111111111111, N
8448, 23.466666666666665, N
8730, 24.25, N
8990, 24.97222222222222, N
9236, 25.655555555555555, N
9542, 26.505555555555556, N
9882, 27.45, N
10235, 28.430555555555557, N
10532, 29.255555555555556, N
10791, 29.975, N
11023, 30.619444444444444, N
11277, 31.325, N
11543, 32.06388888888889, N
11807, 32.797222222222224, N
12147, 33.74166666666667, N
12348, 34.3, N
12706, 35.294444444444444, N
13013, 36.147222222222226, N
13315, 36.986111111111114, N
13607, 37.797222222222224, N
13863, 38.50833333333333, V
14141, 39.28055555555556, N
14415, 40.041666666666664, N
14642, 40.672222222222224, N
14962, 41.56111111111111, N
15230, 42.30555555555556, N
15578, 43.272222222222226, N
15845, 44.013888888888886, N
16093, 44.702777777777776, N
16362, 45.45, N
16617, 46.15833333333333, N
16891, 46.919444444444444, N
17195, 47.763888888888886, N
17469, 48.525, N
17750, 49.30555555555556, N
17992, 49.977777777777774, N
18290, 50.80555555555556, N
18567, 51.575, N
18792, 52.2, N
19172, 53.25555555555555, N
19457, 54.047222222222224, N
19825, 55.06944444444444, N
20030, 55.638888888888886, N
20280, 56.333333333333336, N
20653, 57.36944444444445, N
20945, 58.18055555555556, N
21178, 58.827777777777776, N
21597, 59.99166666666667, N
21841, 60.669444444444444, N
22048, 61.24444444444445, N
22299, 61.94166666666667, N
22547, 62.63055555555555, N
22841, 63.44722222222222, N
23054, 64.03888888888889, N
23352, 64.86666666666666, N
23632, 65.64444444444445, N
23879, 66.33055555555555, N
24230, 67.30555555555556, N
24435, 67.875, V
24748, 68.74444444444444, N
25015, 69.48611111111111, N
25310, 70.30555555555556, N
25515, 70.875, N
25831, 71.75277777777778, N
26101, 72.50277777777778, N
26440, 73.44444444444444, N
26652, 74.03333333333333, N
26943, 74.84166666666667, N
27173, 75.48055555555555, N
27475, 76.31944444444444, N
27694, 76.92777777777778, V
27987, 77.74166666666666, N
28305, 78.625, N
28516, 79.21111111111111, V
28783, 79.95277777777778, N
29086, 80.79444444444445, N
29353, 81.53611111111111, N
29596, 82.21111111111111, N
29843, 82.89722222222223, N
30053, 83.48055555555555, N
30378, 84.38333333333334, N
30675, 85.20833333333333, N
30967, 86.01944444444445, N
31185, 86.625, N
31453, 87.36944444444444, N
31725, 88.125, N
31980, 88.83333333333333, N
32285, 89.68055555555556, N
32633, 90.64722222222223, N
32993, 91.64722222222223, N
33119, 91.99722222222222, +
33245, 92.34722222222223, V
33567, 93.24166666666666, N
33848, 94.02222222222223, N
34117, 94.76944444444445, V
34413, 95.59166666666667, N
34650, 96.25, N
34852, 96.81111111111112, V
35214, 97.81666666666666, N
35452, 98.47777777777777, N
35656, 99.04444444444445, V
35906, 99.7388888888889, N
36248, 100.68888888888888, N
36456, 101.26666666666667, V
36627, 101.74166666666666, +
36799, 102.21944444444445, N
37050, 102.91666666666667, N
37354, 103.7611111111111, N
37659, 104.60833333333333, N
37890, 105.25, N
38182, 106.06111111111112, N
38405, 106.68055555555556, N
38688, 107.46666666666667, N
38943, 108.175, N
39235, 108.98611111111111, N
39525, 109.79166666666667, N
39748, 110.41111111111111, N
40021, 111.16944444444445, N
40328, 112.02222222222223, N
40641, 112.89166666666667, N
40993, 113.86944444444444, N
41240, 114.55555555555556, N
41498, 115.27222222222223, N
41929, 116.46944444444445, N
42233, 117.31388888888888, N
42449, 117.91388888888889, N
42893, 119.14722222222223, N
43095, 119.70833333333333, N
43421, 120.6138888888889, N
43693, 121.36944444444444, N
44024, 122.28888888888889, N
44248, 122.91111111111111, N
44536, 123.71111111111111, N
44854, 124.59444444444445, N
45196, 125.54444444444445, N
45457, 126.26944444444445, N
45678, 126.88333333333334, N
45900, 127.5, N
46131, 128.14166666666668, N
46445, 129.01388888888889, N
46786, 129.9611111111111, N
47113, 130.86944444444444, N
47439, 131.775, N
47658, 132.38333333333333, N
47961, 133.225, N
48233, 133.98055555555555, N
48509, 134.74722222222223, N
48783, 135.50833333333333, N
49107, 136.40833333333333, N
49364, 137.12222222222223, N
49581, 137.725, N
49808, 138.35555555555555, N
50130, 139.25, N
50512, 140.3111111111111, N
50741, 140.94722222222222, N
51108, 141.96666666666667, N
51364, 142.67777777777778, N
51704, 143.62222222222223, N
52018, 144.49444444444444, N
52297, 145.26944444444445, N
52588, 146.07777777777778, N
52956, 147.1, N
53277, 147.99166666666667, N
53604, 148.9, N
53843, 149.5638888888889, N
54099, 150.275, N
54303, 150.84166666666667, N
54632, 151.75555555555556, N
54911, 152.53055555555557, N
55160, 153.22222222222223, N
55427, 153.9638888888889, N
55719, 154.775, N
55930, 155.36111111111111, N
56300, 156.38888888888889, N
56579, 157.1638888888889, N
56899, 158.05277777777778, N
57153, 158.75833333333333, N
57400, 159.44444444444446, N
57700, 160.27777777777777, N
57936, 160.93333333333334, N
58180, 161.61111111111111, N
58394, 162.20555555555555, V
58665, 162.95833333333334, N
58953, 163.75833333333333, N
59249, 164.58055555555555, N
59629, 165.63611111111112, N
59864, 166.2888888888889, N
60194, 167.20555555555555, N
60462, 167.95, N
60751, 168.75277777777777, N
61018, 169.49444444444444, N
61350, 170.41666666666666, N
61680, 171.33333333333334, N
61909, 171.96944444444443, N
62207, 172.79722222222222, N
62438, 173.4388888888889, N
62730, 174.25, N
63025, 175.06944444444446, N
63190, 175.52777777777777, F
63580, 176.61111111111111, N
63905, 177.51388888888889, N
64129, 178.13611111111112, N
64383, 178.84166666666667, N
64696, 179.7111111111111, N
64991, 180.53055555555557, N
65380, 181.61111111111111, N
65656, 182.37777777777777, N
65962, 183.2277777777778, N
66315, 184.20833333333334, N
66548, 184.85555555555555, N
66834, 185.65, N
67103, 186.3972222222222, N
67420, 187.27777777777777, N
67708, 188.07777777777778, N
67891, 188.5861111111111, N
68209, 189.46944444444443, N
68446, 190.12777777777777, N
68721, 190.89166666666668, N
68970, 191.58333333333334, N
69214, 192.26111111111112, N
69486, 193.01666666666668, N
69779, 193.83055555555555, N
70067, 194.63055555555556, N
70327, 195.3527777777778, N
70589, 196.08055555555555, N
70913, 196.98055555555555, N
71249, 197.9138888888889, N
71561, 198.78055555555557, N
71817, 199.49166666666667, N
72112, 200.3111111111111, N
72457, 201.26944444444445, N
72736, 202.04444444444445, N
73109, 203.08055555555555, N
73322, 203.67222222222222, N
73635, 204.54166666666666, N
73882, 205.2277777777778, N
74122, 205.89444444444445, N
74401, 206.66944444444445, N
74649, 207.35833333333332, N
74935, 208.15277777777777, N
75274, 209.09444444444443, N
75543, 209.84166666666667, N
75808, 210.57777777777778, N
76106, 211.40555555555557, N
76404, 212.23333333333332, N
76691, 213.03055555555557, N
76925, 213.68055555555554, N
77209, 214.46944444444443, N
77486, 215.23888888888888, N
77700, 215.83333333333334, N
77957, 216.54722222222222, N
78233, 217.3138888888889, N
78483, 218.00833333333333, N
78778, 218.82777777777778, N
78980, 219.38888888888889, V
79367, 220.4638888888889, N
79614, 221.15, N
79858, 221.82777777777778, N
80187, 222.74166666666667, N
80459, 223.49722222222223, N
80725, 224.23611111111111, N
81027, 225.075, N
81380, 226.05555555555554, N
81756, 227.1, N
82020, 227.83333333333334, N
82286, 228.57222222222222, N
82514, 229.20555555555555, N
82802, 230.00555555555556, N
83161, 231.00277777777777, N
83369, 231.58055555555555, V
83697, 232.49166666666667, N
83964, 233.23333333333332, N
84280, 234.11111111111111, N
84586, 234.9611111111111, N
84854, 235.70555555555555, N
85074, 236.31666666666666, N
85354, 237.09444444444443, N
85566, 237.68333333333334, N
85890, 238.58333333333334, N
86194, 239.42777777777778, N
86468, 240.1888888888889, N
86693, 240.8138888888889, N
87012, 241.7, N
87397, 242.76944444444445, N
87668, 243.5222222222222, N
87919, 244.21944444444443, N
88221, 245.05833333333334, N
88505, 245.84722222222223, N
88709, 246.4138888888889, N
89040, 247.33333333333334, N
89311, 248.0861111111111, N
89568, 248.8, N
89873, 249.6472222222222, N
90189, 250.525, N
90581, 251.61388888888888, N
90888, 252.46666666666667, N
91230, 253.41666666666666, N
91451, 254.03055555555557, N
91648, 254.57777777777778, N
91860, 255.16666666666666, N
92296, 256.3777777777778, N
92568, 257.1333333333333, N
92777, 257.7138888888889, N
93028, 258.4111111111111, N
93329, 259.2472222222222, N
93612, 260.03333333333336, N
93855, 260.7083333333333, N
94099, 261.3861111111111, N
94305, 261.9583333333333, N
94617, 262.825, N
94963, 263.7861111111111, N
95254, 264.59444444444443, N
95533, 265.36944444444447, N
95859, 266.275, N
96141, 267.05833333333334, N
96444, 267.9, N
96848, 269.02222222222224, N
97068, 269.6333333333333, N
97353, 270.425, N
97637, 271.2138888888889, N
97916, 271.9888888888889, N
98232, 272.8666666666667, N
98439, 273.44166666666666, N
98751, 274.30833333333334, N
98949, 274.85833333333335, N
99246, 275.68333333333334, N
99536, 276.4888888888889, N
99811, 277.2527777777778, N
100029, 277.85833333333335, V
100385, 278.84722222222223, N
100593, 279.425, N
100861, 280.1694444444444, N
101090, 280.80555555555554, N
101347, 281.51944444444445, N
101570, 282.1388888888889, N
101950, 283.19444444444446, N
102318, 284.21666666666664, N
102555, 284.875, N
102835, 285.65277777777777, N
103091, 286.3638888888889, N
103412, 287.25555555555553, N
103687, 288.01944444444445, N
103907, 288.63055555555553, N
104214, 289.48333333333335, N
104430, 290.0833333333333, N
104701, 290.8361111111111, N
105013, 291.7027777777778, N
105253, 292.36944444444447, N
105523, 293.11944444444447, N
105741, 293.725, N
106028, 294.52222222222224, N
106333, 295.36944444444447, N
106601, 296.1138888888889, N
106984, 297.1777777777778, N
107318, 298.10555555555555, N
107623, 298.9527777777778, N
107916, 299.76666666666665, N
108183, 300.5083333333333, N
108411, 301.14166666666665, N
108913, 302.5361111111111, "
109192, 303.31111111111113, +
109340, 303.72222222222223, N
109694, 304.7055555555556, N
110009, 305.5805555555556, N
110251, 306.2527777777778, A
110615, 307.2638888888889, N
110944, 308.1777777777778, N
111262, 309.06111111111113, N
111571, 309.9194444444444, N
111878, 310.77222222222224, N
112185, 311.625, N
112457, 312.38055555555553, A
112827, 313.40833333333336, N
113129, 314.2472222222222, N
113443, 315.11944444444447, N
113749, 315.96944444444443, N
114059, 316.8305555555556, N
114352, 317.64444444444445, N
114684, 318.56666666666666, N
114965, 319.34722222222223, A
115301, 320.28055555555557, N
115592, 321.0888888888889, A
115924, 322.0111111111111, N
116211, 322.80833333333334, N
116543, 323.73055555555555, N
116870, 324.6388888888889, "
117120, 325.3333333333333, N
117415, 326.15277777777777, N
117599, 326.6638888888889, +
117703, 326.9527777777778, N
117998, 327.77222222222224, N
118257, 328.4916666666667, N
118533, 329.2583333333333, N
118765, 329.90277777777777, N
119063, 330.73055555555555, N
119361, 331.55833333333334, N
119657, 332.38055555555553, N
119934, 333.15, N
120168, 333.8, N
120455, 334.59722222222223, N
120730, 335.3611111111111, N
120966, 336.01666666666665, N
121277, 336.88055555555553, N
121598, 337.77222222222224, N
121850, 338.47222222222223, N
122175, 339.375, N
122485, 340.2361111111111, N
122809, 341.1361111111111, N
123010, 341.69444444444446, V
123279, 342.44166666666666, N
123624, 343.4, N
123920, 344.22222222222223, N
124143, 344.84166666666664, N
124437, 345.65833333333336, N
124743, 346.5083333333333, N
124972, 347.14444444444445, N
125273, 347.98055555555555, N
125537, 348.7138888888889, N
125858, 349.60555555555555, N
126099, 350.275, N
126341, 350.9472222222222, N
126582, 351.6166666666667, N
126808, 352.24444444444447, N
127045, 352.90277777777777, N
127351, 353.7527777777778, N
127632, 354.53333333333336, N
127844, 355.1222222222222, V
128110, 355.8611111111111, N
128378, 356.60555555555555, N
128645, 357.34722222222223, N
128884, 358.0111111111111, N
129160, 358.77777777777777, N
129498, 359.71666666666664, N
129780, 360.5, N
130067, 361.2972222222222, N
130338, 362.05, N
130625, 362.84722222222223, N
130956, 363.76666666666665, N
131229, 364.525, N
131562, 365.45, N
131858, 366.27222222222224, N
132105, 366.9583333333333, N
132334, 367.59444444444443, N
132629, 368.4138888888889, N
132996, 369.43333333333334, N
133223, 370.06388888888887, N
133549, 370.96944444444443, N
133820, 371.72222222222223, N
134074, 372.4277777777778, N
134306, 373.0722222222222, N
134517, 373.65833333333336, V
134948, 374.85555555555555, N
135171, 375.475, N
135443, 376.23055555555555, N
135750, 377.0833333333333, N
135957, 377.65833333333336, N
136233, 378.425, N
136502, 379.1722222222222, N
136735, 379.81944444444446, N
137000, 380.55555555555554, N
137304, 381.4, N
137608, 382.24444444444447, N
137834, 382.8722222222222, V
138113, 383.64722222222224, N
138376, 384.3777777777778, N
138675, 385.2083333333333, N
138938, 385.93888888888887, N
139188, 386.6333333333333, N
139466, 387.40555555555557, N
139748, 388.18888888888887, N
140050, 389.02777777777777, N
140341, 389.8361111111111, N
140673, 390.7583333333333, N
140876, 391.3222222222222, N
141180, 392.1666666666667, N
141490, 393.02777777777777, N
141747, 393.7416666666667, N
142099, 394.71944444444443, N
142334, 395.3722222222222, N
142599, 396.10833333333335, N
142835, 396.7638888888889, N
143184, 397.73333333333335, N
143438, 398.43888888888887, N
143654, 399.0388888888889, N
143947, 399.85277777777776, N
144222, 400.6166666666667, N
144423, 401.175, V
144723, 402.0083333333333, N
144947, 402.63055555555553, N
145204, 403.34444444444443, N
145442, 404.00555555555553, N
145683, 404.675, N
145927, 405.35277777777776, N
146284, 406.34444444444443, N
146596, 407.2111111111111, N
146840, 407.8888888888889, N
147074, 408.5388888888889, N
147317, 409.2138888888889, N
147587, 409.9638888888889, N
147797, 410.5472222222222, V
148068, 411.3, N
148347, 412.075, N
148808, 413.35555555555555, N
149074, 414.09444444444443, N
149403, 415.0083333333333, N
149618, 415.60555555555555, N
149872, 416.31111111111113, N
150185, 417.18055555555554, N
150472, 417.97777777777776, N
150725, 418.68055555555554, N
150970, 419.3611111111111, N
151306, 420.2944444444444, N
151576, 421.0444444444444, N
151806, 421.68333333333334, N
152060, 422.3888888888889, N
152286, 423.01666666666665, N
152554, 423.7611111111111, N
152779, 424.3861111111111, N
153051, 425.14166666666665, N
153266, 425.7388888888889, N
153576, 426.6, N
153863, 427.39722222222224, N
154092, 428.03333333333336, N
154399, 428.8861111111111, N
154668, 429.6333333333333, N
154896, 430.26666666666665, N
155100, 430.8333333333333, V
155395, 431.65277777777777, N
155656, 432.3777777777778, N
155886, 433.01666666666665, N
156160, 433.77777777777777, N
156435, 434.5416666666667, N
156713, 435.31388888888887, N
157003, 436.11944444444447, N
157289, 436.9138888888889, N
157602, 437.78333333333336, N
157902, 438.6166666666667, N
158190, 439.4166666666667, N
158487, 440.2416666666667, N
158794, 441.09444444444443, N
159033, 441.7583333333333, N
159342, 442.6166666666667, N
159640, 443.44444444444446, N
159946, 444.2944444444444, N
160229, 445.0805555555556, N
160522, 445.89444444444445, N
160770, 446.5833333333333, N
161011, 447.2527777777778, N
161287, 448.01944444444445, N
161600, 448.8888888888889, N
161850, 449.5833333333333, N
162154, 450.4277777777778, N
162447, 451.2416666666667, N
162738, 452.05, N
163058, 452.93888888888887, N
163324, 453.6777777777778, N
163632, 454.53333333333336, N
164093, 455.81388888888887, N
164338, 456.49444444444447, N
164739, 457.60833333333335, N
165064, 458.5111111111111, N
165518, 459.77222222222224, N
165806, 460.5722222222222, N
166130, 461.47222222222223, N
166375, 462.15277777777777, N
166653, 462.925, N
166966, 463.7944444444444, N
167247, 464.575, N
167560, 465.44444444444446, N
167847, 466.2416666666667, N
168152, 467.0888888888889, N
168449, 467.9138888888889, N
168857, 469.0472222222222, N
169074, 469.65, N
169319, 470.3305555555556, N
169586, 471.0722222222222, N
169875, 471.875, N
170165, 472.68055555555554, N
170448, 473.46666666666664, N
170739, 474.275, N
171037, 475.10277777777776, N
171324, 475.9, N
171583, 476.61944444444447, N
171909, 477.525, N
172213, 478.36944444444447, N
172467, 479.075, N
172857, 480.15833333333336, N
173168, 481.02222222222224, N
173413, 481.7027777777778, N
173638, 482.3277777777778, N
173994, 483.31666666666666, N
174256, 484.0444444444444, N
174579, 484.94166666666666, N
174811, 485.5861111111111, N
175059, 486.275, N
175382, 487.1722222222222, N
175669, 487.96944444444443, N
175968, 488.8, N
176261, 489.6138888888889, N
176520, 490.3333333333333, N
176797, 491.10277777777776, N
177124, 492.0111111111111, N
177332, 492.5888888888889, V
177681, 493.55833333333334, N
177980, 494.3888888888889, N
178198, 494.99444444444447, V
178476, 495.76666666666665, N
178801, 496.6694444444444, N
179105, 497.5138888888889, N
179401, 498.3361111111111, N
179663, 499.06388888888887, N
179980, 499.94444444444446, N
180238, 500.6611111111111, N
180535, 501.4861111111111, N
180837, 502.325, N
181165, 503.2361111111111, N
181436, 503.9888888888889, N
181734, 504.81666666666666, N
182017, 505.60277777777776, N
182317, 506.43611111111113, N
182548, 507.0777777777778, N
182831, 507.8638888888889, N
183203, 508.89722222222224, N
183797, 510.5472222222222, N
184093, 511.36944444444447, N
184388, 512.1888888888889, N
184676, 512.9888888888889, N
184943, 513.7305555555556, N
185218, 514.4944444444444, N
185495, 515.2638888888889, N
185798, 516.1055555555556, N
186166, 517.1277777777777, N
186508, 518.0777777777778, N
186742, 518.7277777777778, N
186958, 519.3277777777778, N
187250, 520.1388888888889, N
187533, 520.925, N
187796, 521.6555555555556, N
188058, 522.3833333333333, N
188305, 523.0694444444445, N
188558, 523.7722222222222, N
188758, 524.3277777777778, V
189016, 525.0444444444445, N
189228, 525.6333333333333, N
189470, 526.3055555555555, N
189758, 527.1055555555556, N
190024, 527.8444444444444, N
190362, 528.7833333333333, N
190820, 530.0555555555555, N
191126, 530.9055555555556, N
191562, 532.1166666666667, N
191946, 533.1833333333333, N
192238, 533.9944444444444, N
192544, 534.8444444444444, N
192741, 535.3916666666667, N
193035, 536.2083333333334, N
193324, 537.0111111111111, N
193588, 537.7444444444444, N
193797, 538.325, V
194149, 539.3027777777778, N
194347, 539.8527777777778, N
194614, 540.5944444444444, N
194904, 541.4, N
195192, 542.2, N
195395, 542.7638888888889, V
195762, 543.7833333333333, N
196064, 544.6222222222223, N
196267, 545.1861111111111, V
196610, 546.1388888888889, N
196916, 546.9888888888889, N
197228, 547.8555555555556, N
197537, 548.7138888888888, N
197826, 549.5166666666667, N
198125, 550.3472222222222, N
198344, 550.9555555555555, N
198626, 551.7388888888889, N
198909, 552.525, N
199165, 553.2361111111111, N
199400, 553.8888888888889, N
199743, 554.8416666666667, N
200089, 555.8027777777778, N
200350, 556.5277777777778, N
200636, 557.3222222222222, N
200925, 558.125, N
201139, 558.7194444444444, N
201379, 559.3861111111111, N
201706, 560.2944444444445, N
202051, 561.2527777777777, N
202374, 562.15, N
202671, 562.975, N
203000, 563.8888888888889, N
203300, 564.7222222222222, N
203585, 565.5138888888889, N
203904, 566.4, N
204189, 567.1916666666667, N
204479, 567.9972222222223, N
204793, 568.8694444444444, N
205078, 569.6611111111112, N
205357, 570.4361111111111, N
205583, 571.0638888888889, N
205812, 571.7, N
206099, 572.4972222222223, N
206428, 573.4111111111112, N
206656, 574.0444444444445, N
206933, 574.8138888888889, N
207190, 575.5277777777778, N
207422, 576.1722222222222, N
207714, 576.9833333333333, N
208016, 577.8222222222222, N
208299, 578.6083333333333, N
208560, 579.3333333333334, N
208770, 579.9166666666666, N
209022, 580.6166666666667, N
209282, 581.3388888888888, N
209563, 582.1194444444444, N
209839, 582.8861111111111, N
210118, 583.6611111111112, N
210399, 584.4416666666667, N
210621, 585.0583333333333, N
210967, 586.0194444444444, N
211248, 586.8, N
211528, 587.5777777777778, N
211794, 588.3166666666667, N
212101, 589.1694444444445, N
212379, 589.9416666666667, N
212611, 590.5861111111111, N
212947, 591.5194444444444, N
213244, 592.3444444444444, N
213531, 593.1416666666667, N
213783, 593.8416666666667, N
214042, 594.5611111111111, N
214347, 595.4083333333333, N
214685, 596.3472222222222, N
214956, 597.1, N
215248, 597.9111111111112, N
215542, 598.7277777777778, N
215803, 599.4527777777778, N
216016, 600.0444444444445, N
216253, 600.7027777777778, N
216523, 601.4527777777778, N
216805, 602.2361111111111, N
217042, 602.8944444444444, N
217264, 603.5111111111111, N
217522, 604.2277777777778, N
217798, 604.9944444444444, N
218039, 605.6638888888889, N
218453, 606.8138888888889, N
218767, 607.6861111111111, N
219126, 608.6833333333333, N
219489, 609.6916666666667, N
219693, 610.2583333333333, V
220048, 611.2444444444444, N
220250, 611.8055555555555, N
220519, 612.5527777777778, N
220814, 613.3722222222223, N
221060, 614.0555555555555, N
221274, 614.65, V
221531, 615.3638888888889, N
221805, 616.125, N
222062, 616.8388888888888, N
222341, 617.6138888888889, N
222589, 618.3027777777778, N
222850, 619.0277777777778, N
223075, 619.6527777777778, N
223364, 620.4555555555555, N
223575, 621.0416666666666, V
223856, 621.8222222222222, N
224171, 622.6972222222222, N
224409, 623.3583333333333, V
224709, 624.1916666666667, N
224978, 624.9388888888889, N
225274, 625.7611111111111, N
225482, 626.3388888888888, N
225778, 627.1611111111112, N
226065, 627.9583333333334, N
226287, 628.575, N
226583, 629.3972222222222, N
226815, 630.0416666666666, N
227079, 630.775, N
227373, 631.5916666666667, N
227656, 632.3777777777777, N
227965, 633.2361111111111, N
228230, 633.9722222222222, N
228452, 634.5888888888888, N
228727, 635.3527777777778, N
228993, 636.0916666666667, N
229268, 636.8555555555556, N
229472, 637.4222222222222, V
229739, 638.1638888888889, N
230001, 638.8916666666667, N
230241, 639.5583333333333, N
230519, 640.3305555555555, N
230725, 640.9027777777778, N
231073, 641.8694444444444, N
231285, 642.4583333333334, N
231642, 643.45, N
232004, 644.4555555555555, N
232224, 645.0666666666667, N
232464, 645.7333333333333, N
232741, 646.5027777777777, N
233036, 647.3222222222222, N
233391, 648.3083333333333, N
233770, 649.3611111111111, N
234046, 650.1277777777777, N
234264, 650.7333333333333, N
234564, 651.5666666666667, N
234919, 652.5527777777778, N
235138, 653.1611111111112, N
235423, 653.9527777777778, N
235806, 655.0166666666667, N
236175, 656.0416666666666, N
236452, 656.8111111111111, N
236756, 657.6555555555556, N
237021, 658.3916666666667, N
237251, 659.0305555555556, N
237499, 659.7194444444444, N
237763, 660.4527777777778, N
237990, 661.0833333333334, N
238249, 661.8027777777778, N
238571, 662.6972222222222, N
238852, 663.4777777777778, N
239129, 664.2472222222223, N
239491, 665.2527777777777, N
239766, 666.0166666666667, N
240070, 666.8611111111111, N
240391, 667.7527777777777, N
240704, 668.6222222222223, N
240981, 669.3916666666667, N
241295, 670.2638888888889, N
241552, 670.9777777777778, N
241835, 671.7638888888889, N
242134, 672.5944444444444, N
242453, 673.4805555555556, N
242674, 674.0944444444444, N
242951, 674.8638888888889, N
243232, 675.6444444444444, N
243500, 676.3888888888889, N
243833, 677.3138888888889, N
244114, 678.0944444444444, N
244414, 678.9277777777778, N
244667, 679.6305555555556, N
244921, 680.3361111111111, N
245166, 681.0166666666667, N
245503, 681.9527777777778, N
245821, 682.8361111111111, N
246171, 683.8083333333333, N
246439, 684.5527777777778, N
246754, 685.4277777777778, N
247151, 686.5305555555556, N
247403, 687.2305555555556, N
247621, 687.8361111111111, N
247934, 688.7055555555555, N
248209, 689.4694444444444, N
248415, 690.0416666666666, N
248742, 690.95, N
249033, 691.7583333333333, N
249378, 692.7166666666667, N
249631, 693.4194444444445, N
249905, 694.1805555555555, N
250243, 695.1194444444444, N
250768, 696.5777777777778, N
251055, 697.375, N
251327, 698.1305555555556, N
251645, 699.0138888888889, N
251895, 699.7083333333334, N
252127, 700.3527777777778, N
252437, 701.2138888888888, N
252712, 701.9777777777778, N
252936, 702.6, N
253136, 703.1555555555556, V
253511, 704.1972222222222, N
253724, 704.7888888888889, N
254083, 705.7861111111112, N
254292, 706.3666666666667, N
254521, 707.0027777777777, N
254779, 707.7194444444444, N
255043, 708.4527777777778, N
255271, 709.0861111111111, N
255559, 709.8861111111111, N
255815, 710.5972222222222, N
256109, 711.4138888888889, N
256391, 712.1972222222222, N
256639, 712.8861111111111, N
256874, 713.5388888888889, N
257325, 714.7916666666666, N
257607, 715.575, N
257829, 716.1916666666667, N
258130, 717.0277777777778, N
258401, 717.7805555555556, N
258680, 718.5555555555555, N
258913, 719.2027777777778, N
259196, 719.9888888888889, N
259404, 720.5666666666667, N
259732, 721.4777777777778, N
259975, 722.1527777777778, N
260264, 722.9555555555555, N
260570, 723.8055555555555, N
260790, 724.4166666666666, N
261097, 725.2694444444444, N
261325, 725.9027777777778, N
261664, 726.8444444444444, N
261991, 727.7527777777777, N
262306, 728.6277777777777, N
262571, 729.3638888888889, N
262922, 730.3388888888888, N
263240, 731.2222222222222, N
263448, 731.8, N
263787, 732.7416666666667, N
264009, 733.3583333333333, N
264322, 734.2277777777778, N
264527, 734.7972222222222, N
264843, 735.675, N
265158, 736.55, N
265463, 737.3972222222222, N
265665, 737.9583333333334, N
265977, 738.825, N
266209, 739.4694444444444, N
266545, 740.4027777777778, N
267015, 741.7083333333334, N
267240, 742.3333333333334, N
267516, 743.1, N
267753, 743.7583333333333, N
268025, 744.5138888888889, N
268234, 745.0944444444444, N
268450, 745.6944444444445, N
268788, 746.6333333333333, N
269082, 747.45, N
269391, 748.3083333333333, N
269672, 749.0888888888888, N
269899, 749.7194444444444, N
270155, 750.4305555555555, N
270469, 751.3027777777778, N
270774, 752.15, N
270973, 752.7027777777778, N
271323, 753.675, N
271587, 754.4083333333333, N
271827, 755.075, N
272117, 755.8805555555556, N
272336, 756.4888888888889, N
272641, 757.3361111111111, N
272940, 758.1666666666666, N
273213, 758.925, N
273478, 759.6611111111112, N
273721, 760.3361111111111, N
273959, 760.9972222222223, N
274293, 761.925, N
274625, 762.8472222222222, N
274883, 763.5638888888889, N
275189, 764.4138888888889, N
275512, 765.3111111111111, N
275841, 766.225, N
276106, 766.9611111111111, N
276350, 767.6388888888889, N
276710, 768.6388888888889, N
276981, 769.3916666666667, N
277317, 770.325, N
277514, 770.8722222222223, N
277855, 771.8194444444445, N
278060, 772.3888888888889, N
278339, 773.1638888888889, N
278601, 773.8916666666667, N
278794, 774.4277777777778, N
279044, 775.1222222222223, N
279266, 775.7388888888889, N
279578, 776.6055555555556, N
279846, 777.35, N
280178, 778.2722222222222, N
280478, 779.1055555555556, N
280871, 780.1972222222222, N
281155, 780.9861111111111, N
281416, 781.7111111111111, N
281670, 782.4166666666666, N
282053, 783.4805555555556, N
282339, 784.275, N
282654, 785.15, N
282934, 785.9277777777778, N
283259, 786.8305555555555, N
283601, 787.7805555555556, N
283863, 788.5083333333333, N
284060, 789.0555555555555, N
284381, 789.9472222222222, N
284588, 790.5222222222222, N
284903, 791.3972222222222, N
285195, 792.2083333333334, N
285415, 792.8194444444445, N
285614, 793.3722222222223, N
285880, 794.1111111111111, N
286150, 794.8611111111111, N
286438, 795.6611111111112, N
286657, 796.2694444444444, N
286943, 797.0638888888889, N
287159, 797.6638888888889, N
287622, 798.95, N
287943, 799.8416666666667, N
288235, 800.6527777777778, N
288475, 801.3194444444445, N
288768, 802.1333333333333, N
289082, 803.0055555555556, N
289354, 803.7611111111111, N
289684, 804.6777777777778, N
289973, 805.4805555555556, N
290256, 806.2666666666667, N
290519, 806.9972222222223, N
290748, 807.6333333333333, N
291023, 808.3972222222222, N
291326, 809.2388888888889, N
291555, 809.875, N
291866, 810.7388888888889, N
292174, 811.5944444444444, N
292511, 812.5305555555556, N
292841, 813.4472222222222, N
293200, 814.4444444444445, N
293461, 815.1694444444445, N
293697, 815.825, N
293943, 816.5083333333333, N
294226, 817.2944444444445, N
294487, 818.0194444444444, N
294805, 818.9027777777778, N
295133, 819.8138888888889, N
295350, 820.4166666666666, N
295675, 821.3194444444445, N
295942, 822.0611111111111, N
296260, 822.9444444444445, N
296522, 823.6722222222222, N
296769, 824.3583333333333, N
297070, 825.1944444444445, N
297357, 825.9916666666667, N
297594, 826.65, N
297822, 827.2833333333333, N
298086, 828.0166666666667, N
298603, 829.4527777777778, N
298819, 830.0527777777778, N
299196, 831.1, N
299393, 831.6472222222222, N
299764, 832.6777777777778, N
300081, 833.5583333333333, N
300575, 834.9305555555555, "
300817, 835.6027777777778, +
301003, 836.1194444444444, N
301335, 837.0416666666666, N
301582, 837.7277777777778, A
301941, 838.725, N
302003, 838.8972222222222, x
302497, 840.2694444444444, N
302796, 841.1, N
303145, 842.0694444444445, N
303429, 842.8583333333333, A
303764, 843.7888888888889, N
303821, 843.9472222222222, x
304383, 845.5083333333333, N
304683, 846.3416666666667, N
304990, 847.1944444444445, N
305287, 848.0194444444444, N
305566, 848.7944444444445, N
305606, 848.9055555555556, x
306102, 850.2833333333333, N
306421, 851.1694444444445, N
306747, 852.075, N
307024, 852.8444444444444, N
307174, 853.2611111111111, +
307323, 853.675, N
307566, 854.35, N
307838, 855.1055555555556, N
308104, 855.8444444444444, N
308357, 856.5472222222222, N
308582, 857.1722222222222, N
308852, 857.9222222222222, N
309153, 858.7583333333333, N
309383, 859.3972222222222, N
309665, 860.1805555555555, N
309962, 861.0055555555556, N
310270, 861.8611111111111, N
310601, 862.7805555555556, N
310933, 863.7027777777778, N
311228, 864.5222222222222, N
311451, 865.1416666666667, N
311715, 865.875, N
311942, 866.5055555555556, N
312214, 867.2611111111111, N
312512, 868.0888888888888, N
312710, 868.6388888888889, N
312958, 869.3277777777778, N
313230, 870.0833333333334, N
313437, 870.6583333333333, V
313746, 871.5166666666667, N
314155, 872.6527777777778, N
314372, 873.2555555555556, N
314623, 873.9527777777778, N
314851, 874.5861111111111, N
315164, 875.4555555555555, N
315359, 875.9972222222223, N
315639, 876.775, N
315918, 877.55, N
316139, 878.1638888888889, N
316389, 878.8583333333333, N
316635, 879.5416666666666, N
316871, 880.1972222222222, N
317192, 881.0888888888888, N
317387, 881.6305555555556, N
317705, 882.5138888888889, N
317982, 883.2833333333333, N
318262, 884.0611111111111, N
318523, 884.7861111111112, N
318777, 885.4916666666667, N
319093, 886.3694444444444, N
319343, 887.0638888888889, N
319636, 887.8777777777777, N
319932, 888.7, N
320201, 889.4472222222222, N
320458, 890.1611111111112, N
320689, 890.8027777777778, N
320949, 891.525, N
321259, 892.3861111111111, N
321702, 893.6166666666667, +
321834, 893.9833333333333, N
322163, 894.8972222222222, N
322204, 895.0111111111111, x
322728, 896.4666666666667, N
323048, 897.3555555555556, N
323098, 897.4944444444444, x
323606, 898.9055555555556, N
323907, 899.7416666666667, N
323968, 899.9111111111112, x
324470, 901.3055555555555, N
324761, 902.1138888888889, N
324800, 902.2222222222222, x
325305, 903.625, N
325598, 904.4388888888889, N
325647, 904.575, x
326129, 905.9138888888889, N
326452, 906.8111111111111, N
326615, 907.2638888888889, +
326740, 907.6111111111111, N
327011, 908.3638888888889, N
327282, 909.1166666666667, N
327536, 909.8222222222222, N
327816, 910.6, N
328030, 911.1944444444445, N
328327, 912.0194444444444, N
328560, 912.6666666666666, V
328877, 913.5472222222222, N
329148, 914.3, N
329349, 914.8583333333333, V
329626, 915.6277777777777, N
329889, 916.3583333333333, N
330125, 917.0138888888889, N
330451, 917.9194444444445, N
330768, 918.8, N
331189, 919.9694444444444, +
331327, 920.3527777777778, N
331642, 921.2277777777778, N
331684, 921.3444444444444, x
332188, 922.7444444444444, N
332485, 923.5694444444445, N
332528, 923.6888888888889, x
333034, 925.0944444444444, N
333323, 925.8972222222222, N
333382, 926.0611111111111, x
333883, 927.4527777777778, N
334168, 928.2444444444444, N
334210, 928.3611111111111, x
334701, 929.725, N
335001, 930.5583333333333, N
335042, 930.6722222222222, x
335542, 932.0611111111111, N
335835, 932.875, N
335882, 933.0055555555556, x
336383, 934.3972222222222, N
336686, 935.2388888888889, N
336733, 935.3694444444444, x
337219, 936.7194444444444, N
337521, 937.5583333333333, N
337562, 937.6722222222222, x
338050, 939.0277777777778, N
338339, 939.8305555555555, N
338379, 939.9416666666667, x
338884, 941.3444444444444, N
339171, 942.1416666666667, N
339349, 942.6361111111111, +
339465, 942.9583333333334, N
339731, 943.6972222222222, N
340199, 944.9972222222223, +
340327, 945.3527777777778, N
340638, 946.2166666666667, N
340682, 946.3388888888888, x
341201, 947.7805555555556, N
341500, 948.6111111111111, N
341542, 948.7277777777778, x
342037, 950.1027777777778, N
342332, 950.9222222222222, N
342379, 951.0527777777778, x
342867, 952.4083333333333, N
343156, 953.2111111111111, N
343200, 953.3333333333334, x
343686, 954.6833333333333, N
343985, 955.5138888888889, N
344038, 955.6611111111112, x
344518, 956.9944444444444, N
344813, 957.8138888888889, N
344865, 957.9583333333334, x
345354, 959.3166666666667, N
345632, 960.0888888888888, A
346031, 961.1972222222222, N
346091, 961.3638888888889, x
346585, 962.7361111111111, N
346882, 963.5611111111111, N
346931, 963.6972222222222, x
347425, 965.0694444444445, N
347723, 965.8972222222222, N
347770, 966.0277777777778, x
348247, 967.3527777777778, N
348303, 967.5083333333333, x
348808, 968.9111111111112, N
349097, 969.7138888888888, N
349145, 969.8472222222222, x
349620, 971.1666666666666, N
349920, 972.0, N
349974, 972.15, x
350452, 973.4777777777778, N
350743, 974.2861111111112, N
350792, 974.4222222222222, x
351283, 975.7861111111112, N
351346, 975.9611111111111, x
351832, 977.3111111111111, N
352125, 978.125, N
352173, 978.2583333333333, x
352660, 979.6111111111111, N
352948, 980.4111111111112, N
352994, 980.5388888888889, x
353489, 981.9138888888889, N
353544, 982.0666666666667, x
354023, 983.3972222222222, N
354328, 984.2444444444444, N
354377, 984.3805555555556, x
354853, 985.7027777777778, N
355155, 986.5416666666666, N
355212, 986.7, x
355684, 988.0111111111111, N
355979, 988.8305555555555, N
356033, 988.9805555555556, x
356495, 990.2638888888889, N
356786, 991.0722222222222, N
356833, 991.2027777777778, x
357305, 992.5138888888889, N
357604, 993.3444444444444, N
357658, 993.4944444444444, x
358138, 994.8277777777778, N
358441, 995.6694444444445, N
358493, 995.8138888888889, x
358961, 997.1138888888889, N
359267, 997.9638888888888, N
359322, 998.1166666666667, x
359813, 999.4805555555556, N
359873, 999.6472222222222, x
360341, 1000.9472222222222, N
360403, 1001.1194444444444, x
360882, 1002.45, N
360945, 1002.625, x
361404, 1003.9, N
361696, 1004.7111111111111, N
361749, 1004.8583333333333, x
362216, 1006.1555555555556, N
362511, 1006.975, N
362568, 1007.1333333333333, x
363037, 1008.4361111111111, N
363113, 1008.6472222222222, x
363591, 1009.975, N
363875, 1010.7638888888889, N
363927, 1010.9083333333333, x
364400, 1012.2222222222222, N
364464, 1012.4, x
364948, 1013.7444444444444, N
365017, 1013.9361111111111, x
365144, 1014.2888888888889, V
365497, 1015.2694444444444, N
365563, 1015.4527777777778, x
366042, 1016.7833333333333, N
366324, 1017.5666666666667, N
366386, 1017.7388888888889, x
366847, 1019.0194444444444, N
367141, 1019.8361111111111, N
367197, 1019.9916666666667, x
367661, 1021.2805555555556, N
367957, 1022.1027777777778, N
368020, 1022.2777777777778, x
368482, 1023.5611111111111, N
368545, 1023.7361111111111, x
369030, 1025.0833333333333, N
369098, 1025.2722222222221, x
369570, 1026.5833333333333, N
369642, 1026.7833333333333, x
370108, 1028.0777777777778, N
370176, 1028.2666666666667, x
370305, 1028.625, V
370655, 1029.5972222222222, N
370716, 1029.7666666666667, x
371194, 1031.0944444444444, N
371483, 1031.8972222222221, N
371536, 1032.0444444444445, x
372017, 1033.3805555555555, N
372093, 1033.5916666666667, x
372552, 1034.8666666666666, N
372621, 1035.0583333333334, x
373105, 1036.4027777777778, N
373391, 1037.1972222222223, N
373446, 1037.35, x
373905, 1038.625, N
374184, 1039.4, N
374482, 1040.2277777777779, N
374772, 1041.0333333333333, N
375062, 1041.838888888889, N
375365, 1042.6805555555557, N
375673, 1043.536111111111, N
375729, 1043.6916666666666, x
376229, 1045.0805555555555, N
376303, 1045.286111111111, x
376788, 1046.6333333333334, N
376858, 1046.8277777777778, x
377335, 1048.1527777777778, N
377398, 1048.3277777777778, x
377625, 1048.9583333333333, +
377727, 1049.2416666666666, N
377976, 1049.9333333333334, N
378170, 1050.4722222222222, N
378436, 1051.2111111111112, N
378626, 1051.7388888888888, N
378842, 1052.338888888889, N
379110, 1053.0833333333333, N
379357, 1053.7694444444444, N
379608, 1054.4666666666667, N
379894, 1055.2611111111112, N
380126, 1055.9055555555556, N
380404, 1056.6777777777777, N
380641, 1057.3361111111112, N
380881, 1058.0027777777777, N
381194, 1058.8722222222223, +
381333, 1059.2583333333334, N
381665, 1060.1805555555557, N
381974, 1061.0388888888888, N
382287, 1061.9083333333333, N
382594, 1062.7611111111112, N
382907, 1063.6305555555555, N
383215, 1064.486111111111, N
383517, 1065.325, N
383575, 1065.486111111111, x
384073, 1066.8694444444445, N
384380, 1067.7222222222222, N
384683, 1068.5638888888889, N
384986, 1069.4055555555556, N
385297, 1070.2694444444444, N
385601, 1071.1138888888888, N
385906, 1071.9611111111112, N
386212, 1072.8111111111111, N
386521, 1073.6694444444445, N
386835, 1074.5416666666667, N
386884, 1074.6777777777777, x
387370, 1076.0277777777778, N
387439, 1076.2194444444444, x
387933, 1077.5916666666667, N
388001, 1077.7805555555556, x
388474, 1079.0944444444444, N
388779, 1079.9416666666666, N
389079, 1080.775, N
389391, 1081.6416666666667, N
389444, 1081.7888888888888, x
389912, 1083.088888888889, N
390229, 1083.9694444444444, N
390535, 1084.8194444444443, N
390740, 1085.388888888889, V
391002, 1086.1166666666666, N
391376, 1087.1555555555556, N
391444, 1087.3444444444444, x
391937, 1088.713888888889, N
392010, 1088.9166666666667, x
392481, 1090.225, N
392550, 1090.4166666666667, x
393041, 1091.7805555555556, N
393115, 1091.986111111111, x
393579, 1093.275, N
393645, 1093.4583333333333, x
394119, 1094.775, N
394418, 1095.6055555555556, N
394705, 1096.4027777777778, N
394762, 1096.5611111111111, x
395265, 1097.9583333333333, N
395557, 1098.7694444444444, N
395613, 1098.925, x
396073, 1100.2027777777778, N
396376, 1101.0444444444445, N
396434, 1101.2055555555555, x
396901, 1102.5027777777777, N
397200, 1103.3333333333333, N
397508, 1104.1888888888889, N
397575, 1104.375, x
398041, 1105.6694444444445, N
398340, 1106.5, N
398408, 1106.6888888888889, x
398870, 1107.9722222222222, N
399177, 1108.825, N
399477, 1109.6583333333333, N
399768, 1110.4666666666667, N
399829, 1110.6361111111112, x
400304, 1111.9555555555555, N
400376, 1112.1555555555556, x
400847, 1113.463888888889, N
400914, 1113.65, x
401391, 1114.975, N
401463, 1115.175, x
401723, 1115.8972222222221, +
401888, 1116.3555555555556, N
402188, 1117.1888888888889, N
402524, 1118.1222222222223, N
402785, 1118.8472222222222, N
403013, 1119.4805555555556, N
403239, 1120.1083333333333, N
403488, 1120.8, N
403728, 1121.4666666666667, N
403935, 1122.0416666666667, N
404230, 1122.861111111111, N
404500, 1123.611111111111, N
404856, 1124.6, N
405212, 1125.588888888889, N
405510, 1126.4166666666667, N
405746, 1127.0722222222223, N
405990, 1127.75, N
406197, 1128.325, V
406460, 1129.0555555555557, N
406671, 1129.6416666666667, N
406914, 1130.3166666666666, N
407231, 1131.1972222222223, N
407488, 1131.911111111111, N
407715, 1132.5416666666667, N
408009, 1133.3583333333333, N
408211, 1133.9194444444445, N
408504, 1134.7333333333333, N
408750, 1135.4166666666667, N
409003, 1136.1194444444445, N
409308, 1136.9666666666667, N
409594, 1137.7611111111112, N
409888, 1138.5777777777778, N
410133, 1139.2583333333334, N
410370, 1139.9166666666667, N
410682, 1140.7833333333333, N
411031, 1141.7527777777777, N
411353, 1142.6472222222221, N
411661, 1143.5027777777777, N
411863, 1144.0638888888889, N
412214, 1145.0388888888888, N
412420, 1145.611111111111, N
412748, 1146.5222222222221, N
413166, 1147.6833333333334, +
413297, 1148.0472222222222, N
413616, 1148.9333333333334, N
413914, 1149.7611111111112, N
414219, 1150.6083333333333, N
414514, 1151.4277777777777, N
414833, 1152.3138888888889, N
415150, 1153.1944444444443, N
415461, 1154.0583333333334, N
415814, 1155.0388888888888, N
416113, 1155.8694444444445, N
416430, 1156.75, N
416754, 1157.65, N
417069, 1158.525, N
417389, 1159.4138888888888, N
417447, 1159.575, x
417963, 1161.0083333333334, N
418031, 1161.1972222222223, x
418522, 1162.5611111111111, N
418839, 1163.4416666666666, N
419148, 1164.3, N
419449, 1165.1361111111112, N
419760, 1166.0, N
420069, 1166.8583333333333, N
420379, 1167.7194444444444, N
420433, 1167.8694444444445, x
420956, 1169.3222222222223, N
421021, 1169.5027777777777, x
421521, 1170.8916666666667, N
421584, 1171.0666666666666, x
422069, 1172.4138888888888, N
422136, 1172.6, x
422623, 1173.9527777777778, N
422688, 1174.1333333333334, x
423160, 1175.4444444444443, N
423464, 1176.2888888888888, N
423771, 1177.1416666666667, N
424064, 1177.9555555555555, N
424125, 1178.125, x
424597, 1179.4361111111111, N
424909, 1180.3027777777777, N
425207, 1181.1305555555555, N
425513, 1181.9805555555556, N
425815, 1182.8194444444443, N
426125, 1183.6805555555557, N
426436, 1184.5444444444445, N
426494, 1184.7055555555555, x
426984, 1186.0666666666666, N
427050, 1186.25, x
427545, 1187.625, N
427618, 1187.8277777777778, x
428091, 1189.1416666666667, N
428159, 1189.3305555555555, x
428648, 1190.6888888888889, N
428718, 1190.8833333333334, x
428839, 1191.2194444444444, V
429190, 1192.1944444444443, N
429261, 1192.3916666666667, x
429737, 1193.713888888889, N
430031, 1194.5305555555556, N
430319, 1195.3305555555555, N
430615, 1196.1527777777778, N
430918, 1196.9944444444445, N
431213, 1197.8138888888889, N
431516, 1198.6555555555556, N
431829, 1199.525, N
432150, 1200.4166666666667, N
432471, 1201.3083333333334, N
432534, 1201.4833333333333, x
433042, 1202.8944444444444, N
433120, 1203.111111111111, x
433617, 1204.4916666666666, N
433939, 1205.3861111111112, N
434245, 1206.236111111111, N
434556, 1207.1, N
434611, 1207.2527777777777, x
435082, 1208.5611111111111, N
435389, 1209.4138888888888, N
435696, 1210.2666666666667, N
436008, 1211.1333333333334, N
436066, 1211.2944444444445, x
436542, 1212.6166666666666, N
436616, 1212.8222222222223, x
437109, 1214.1916666666666, N
437182, 1214.3944444444444, x
437652, 1215.7, N
437726, 1215.9055555555556, x
437749, 1215.9694444444444, +
437846, 1216.2388888888888, V
438207, 1217.2416666666666, N
438408, 1217.8, V
438753, 1218.7583333333334, N
438943, 1219.286111111111, V
439101, 1219.725, +
439172, 1219.9222222222222, N
439401, 1220.5583333333334, N
439826, 1221.7388888888888, N
440118, 1222.55, N
440350, 1223.1944444444443, N
440583, 1223.8416666666667, N
440862, 1224.6166666666666, N
441150, 1225.4166666666667, N
441426, 1226.1833333333334, N
441644, 1226.7888888888888, N
441939, 1227.6083333333333, N
442256, 1228.4888888888888, N
442544, 1229.2888888888888, N
442808, 1230.0222222222221, N
443036, 1230.6555555555556, N
443350, 1231.5277777777778, N
443665, 1232.4027777777778, N
443940, 1233.1666666666667, N
444204, 1233.9, N
444462, 1234.6166666666666, N
444768, 1235.4666666666667, N
445071, 1236.3083333333334, N
445372, 1237.1444444444444, N
445708, 1238.0777777777778, N
445941, 1238.725, N
446206, 1239.4611111111112, N
446432, 1240.088888888889, N
446698, 1240.8277777777778, N
446956, 1241.5444444444445, N
447261, 1242.3916666666667, N
447517, 1243.1027777777779, N
447869, 1244.0805555555555, N
448179, 1244.9416666666666, N
448406, 1245.5722222222223, N
448678, 1246.3277777777778, N
448996, 1247.2111111111112, N
449310, 1248.0833333333333, N
449635, 1248.986111111111, N
449918, 1249.7722222222221, N
450131, 1250.3638888888888, N
450433, 1251.2027777777778, N
450709, 1251.9694444444444, N
451152, 1253.2, N
451498, 1254.161111111111, N
451772, 1254.9222222222222, N
452010, 1255.5833333333333, N
452238, 1256.2166666666667, N
452500, 1256.9444444444443, N
452701, 1257.5027777777777, N
453070, 1258.5277777777778, N
453385, 1259.4027777777778, N
453651, 1260.1416666666667, N
453990, 1261.0833333333333, N
454515, 1262.5416666666667, N
454802, 1263.338888888889, N
454993, 1263.8694444444445, N
455232, 1264.5333333333333, N
455476, 1265.2111111111112, N
455691, 1265.8083333333334, N
455975, 1266.5972222222222, N
456311, 1267.5305555555556, N
456538, 1268.161111111111, N
456755, 1268.763888888889, N
457084, 1269.6777777777777, N
457364, 1270.4555555555555, N
457636, 1271.2111111111112, N
457951, 1272.0861111111112, N
458190, 1272.75, N
458465, 1273.513888888889, N
458777, 1274.3805555555555, N
459050, 1275.138888888889, N
459299, 1275.8305555555555, N
459588, 1276.6333333333334, N
459909, 1277.525, N
460117, 1278.1027777777779, N
460412, 1278.9222222222222, N
460697, 1279.713888888889, N
460929, 1280.3583333333333, N
461230, 1281.1944444444443, N
461512, 1281.9777777777779, N
461765, 1282.6805555555557, N
462069, 1283.525, N
462370, 1284.361111111111, N
462596, 1284.9888888888888, N
462867, 1285.7416666666666, N
463105, 1286.4027777777778, N
463421, 1287.2805555555556, N
463678, 1287.9944444444445, N
463902, 1288.6166666666666, N
464184, 1289.4, N
464433, 1290.0916666666667, N
464755, 1290.986111111111, N
465087, 1291.9083333333333, N
465448, 1292.911111111111, N
465831, 1293.975, N
466131, 1294.8083333333334, N
466393, 1295.536111111111, N
466690, 1296.361111111111, N
466971, 1297.1416666666667, N
467189, 1297.7472222222223, N
467453, 1298.4805555555556, N
467752, 1299.3111111111111, N
468031, 1300.0861111111112, N
468345, 1300.9583333333333, N
468562, 1301.5611111111111, N
468849, 1302.3583333333333, N
469147, 1303.1861111111111, N
469458, 1304.05, N
469845, 1305.125, N
470170, 1306.0277777777778, N
470448, 1306.8, N
470742, 1307.6166666666666, N
470963, 1308.2305555555556, N
471321, 1309.225, N
471667, 1310.1861111111111, N
471985, 1311.0694444444443, N
472258, 1311.8277777777778, N
472586, 1312.7388888888888, N
472838, 1313.4388888888889, N
473093, 1314.1472222222221, N
473324, 1314.7888888888888, N
473543, 1315.3972222222221, N
473856, 1316.2666666666667, N
474117, 1316.9916666666666, N
474334, 1317.5944444444444, N
474701, 1318.6138888888888, N
474975, 1319.375, N
475207, 1320.0194444444444, N
475505, 1320.8472222222222, N
475781, 1321.6138888888888, N
475982, 1322.1722222222222, N
476297, 1323.0472222222222, N
476585, 1323.8472222222222, N
476875, 1324.6527777777778, N
477090, 1325.25, N
477457, 1326.2694444444444, N
477774, 1327.15, N
478097, 1328.0472222222222, N
478295, 1328.5972222222222, V
478575, 1329.375, N
478877, 1330.213888888889, N
479189, 1331.0805555555555, N
479458, 1331.8277777777778, N
479687, 1332.463888888889, N
480004, 1333.3444444444444, N
480583, 1334.9527777777778, "
480987, 1336.075, +
481112, 1336.4222222222222, N
481438, 1337.3277777777778, N
481718, 1338.1055555555556, N
482011, 1338.9194444444445, N
482061, 1339.0583333333334, x
482551, 1340.4194444444445, N
482838, 1341.2166666666667, N
482884, 1341.3444444444444, x
483371, 1342.6972222222223, N
483664, 1343.5111111111112, N
483713, 1343.6472222222221, x
484211, 1345.0305555555556, N
484504, 1345.8444444444444, N
484552, 1345.9777777777779, x
484993, 1347.2027777777778, N
485045, 1347.3472222222222, x
485404, 1348.3444444444444, N
485461, 1348.5027777777777, x
485978, 1349.9388888888889, N
486277, 1350.7694444444444, N
486326, 1350.9055555555556, x
486816, 1352.2666666666667, N
487108, 1353.0777777777778, N
487163, 1353.2305555555556, x
487659, 1354.6083333333333, N
487948, 1355.411111111111, N
487997, 1355.5472222222222, x
488494, 1356.9277777777777, N
488791, 1357.7527777777777, N
488840, 1357.888888888889, x
489326, 1359.2388888888888, N
489619, 1360.0527777777777, N
489673, 1360.2027777777778, x
490168, 1361.5777777777778, N
490457, 1362.3805555555555, N
490506, 1362.5166666666667, x
490988, 1363.8555555555556, N
491288, 1364.6888888888889, N
491343, 1364.8416666666667, x
491823, 1366.175, N
492116, 1366.9888888888888, N
492163, 1367.1194444444445, x
492658, 1368.4944444444445, N
492722, 1368.6722222222222, x
493217, 1370.0472222222222, N
493520, 1370.888888888889, N
493566, 1371.0166666666667, x
494034, 1372.3166666666666, N
494335, 1373.1527777777778, N
494385, 1373.2916666666667, x
494874, 1374.65, N
495164, 1375.4555555555555, N
495221, 1375.6138888888888, x
495697, 1376.9361111111111, N
496000, 1377.7777777777778, N
496051, 1377.9194444444445, x
496516, 1379.2111111111112, N
496588, 1379.411111111111, x
497068, 1380.7444444444445, N
497278, 1381.3277777777778, V
497631, 1382.3083333333334, N
497827, 1382.8527777777779, V
498187, 1383.8527777777779, N
498254, 1384.0388888888888, x
498755, 1385.4305555555557, N
498824, 1385.6222222222223, x
499307, 1386.963888888889, N
499376, 1387.1555555555556, x
499869, 1388.525, N
499936, 1388.7111111111112, x
500417, 1390.0472222222222, N
500483, 1390.2305555555556, x
500516, 1390.3222222222223, +
500616, 1390.6, V
500976, 1391.6, N
501037, 1391.7694444444444, x
501161, 1392.1138888888888, V
501525, 1393.125, N
501718, 1393.661111111111, V
501948, 1394.3, +
502020, 1394.5, N
502249, 1395.1361111111112, N
502484, 1395.7888888888888, N
502779, 1396.6083333333333, N
502987, 1397.1861111111111, N
503298, 1398.05, N
503583, 1398.8416666666667, N
503820, 1399.5, V
504109, 1400.3027777777777, N
504426, 1401.1833333333334, N
504765, 1402.125, N
505060, 1402.9444444444443, N
505346, 1403.7388888888888, N
505759, 1404.8861111111112, N
506037, 1405.6583333333333, N
506283, 1406.3416666666667, N
506517, 1406.9916666666666, N
506742, 1407.6166666666666, V
507022, 1408.3944444444444, N
507317, 1409.213888888889, N
507660, 1410.1666666666667, N
507924, 1410.9, N
508180, 1411.611111111111, N
508486, 1412.4611111111112, N
508803, 1413.3416666666667, N
509073, 1414.0916666666667, N
509309, 1414.7472222222223, N
509612, 1415.588888888889, N
509887, 1416.3527777777779, N
510116, 1416.9888888888888, N
510355, 1417.6527777777778, N
510610, 1418.361111111111, N
510893, 1419.1472222222221, N
511345, 1420.4027777777778, N
511640, 1421.2222222222222, N
511949, 1422.0805555555555, N
512159, 1422.6638888888888, N
512446, 1423.4611111111112, N
512737, 1424.2694444444444, N
512989, 1424.9694444444444, N
513241, 1425.6694444444445, N
513516, 1426.4333333333334, N
513808, 1427.2444444444445, N
514138, 1428.161111111111, N
514469, 1429.0805555555555, N
514707, 1429.7416666666666, N
514990, 1430.5277777777778, N
515326, 1431.4611111111112, N
515651, 1432.3638888888888, N
515909, 1433.0805555555555, N
516106, 1433.6277777777777, N
516462, 1434.6166666666666, N
516739, 1435.3861111111112, N
516935, 1435.9305555555557, N
517262, 1436.838888888889, N
517604, 1437.7888888888888, N
517916, 1438.6555555555556, N
518274, 1439.65, N
518600, 1440.5555555555557, N
518921, 1441.4472222222223, N
519182, 1442.1722222222222, N
519422, 1442.838888888889, N
519726, 1443.6833333333334, N
520078, 1444.661111111111, N
520417, 1445.6027777777779, N
520715, 1446.4305555555557, N
520999, 1447.2194444444444, N
521241, 1447.8916666666667, N
521441, 1448.4472222222223, N
521787, 1449.4083333333333, N
522107, 1450.2972222222222, N
522368, 1451.0222222222221, N
522569, 1451.5805555555555, N
522891, 1452.475, N
523176, 1453.2666666666667, N
523459, 1454.0527777777777, N
523750, 1454.861111111111, N
523956, 1455.4333333333334, N
524196, 1456.1, V
524510, 1456.9722222222222, N
524755, 1457.6527777777778, N
525013, 1458.3694444444445, N
525281, 1459.1138888888888, N
525606, 1460.0166666666667, N
525824, 1460.6222222222223, N
526036, 1461.2111111111112, N
526360, 1462.111111111111, N
526690, 1463.0277777777778, N
527011, 1463.9194444444445, N
527396, 1464.9888888888888, N
527677, 1465.7694444444444, N
527919, 1466.4416666666666, N
528185, 1467.1805555555557, N
528502, 1468.0611111111111, N
528802, 1468.8944444444444, N
529046, 1469.5722222222223, N
529299, 1470.275, N
529638, 1471.2166666666667, N
529963, 1472.1194444444445, N
530224, 1472.8444444444444, N
530434, 1473.4277777777777, N
530717, 1474.213888888889, N
530928, 1474.8, N
531223, 1475.6194444444445, N
531485, 1476.3472222222222, N
531718, 1476.9944444444445, N
531922, 1477.5611111111111, V
532181, 1478.2805555555556, N
532430, 1478.9722222222222, N
532765, 1479.9027777777778, N
532977, 1480.4916666666666, N
533254, 1481.2611111111112, N
533472, 1481.8666666666666, N
533758, 1482.661111111111, N
534097, 1483.6027777777779, N
534382, 1484.3944444444444, N
534668, 1485.1888888888889, N
534928, 1485.911111111111, N
535131, 1486.475, N
535427, 1487.2972222222222, N
535608, 1487.8, V
535978, 1488.8277777777778, N
536248, 1489.5777777777778, N
536500, 1490.2777777777778, N
536792, 1491.088888888889, N
537090, 1491.9166666666667, N
537453, 1492.925, N
537734, 1493.7055555555555, N
537972, 1494.3666666666666, N
538273, 1495.2027777777778, N
538595, 1496.0972222222222, N
538829, 1496.7472222222223, N
539156, 1497.6555555555556, N
539449, 1498.4694444444444, N
539725, 1499.236111111111, N
539969, 1499.9138888888888, N
540279, 1500.775, N
540586, 1501.6277777777777, N
540888, 1502.4666666666667, N
541110, 1503.0833333333333, N
541434, 1503.9833333333333, N
541736, 1504.8222222222223, N
542053, 1505.7027777777778, N
542416, 1506.7111111111112, N
542720, 1507.5555555555557, N
543017, 1508.3805555555555, N
543273, 1509.0916666666667, N
543612, 1510.0333333333333, N
543955, 1510.986111111111, N
544210, 1511.6944444444443, N
544483, 1512.4527777777778, N
544693, 1513.036111111111, N
545088, 1514.1333333333334, N
545446, 1515.1277777777777, N
545807, 1516.1305555555555, N
546123, 1517.0083333333334, N
546381, 1517.725, N
546572, 1518.2555555555555, N
546776, 1518.8222222222223, N
547054, 1519.5944444444444, N
547353, 1520.425, N
547559, 1520.9972222222223, N
547880, 1521.888888888889, N
548209, 1522.8027777777777, N
548524, 1523.6777777777777, N
548821, 1524.5027777777777, N
549175, 1525.486111111111, N
549516, 1526.4333333333334, N
549774, 1527.15, N
550035, 1527.875, N
550309, 1528.6361111111112, N
550533, 1529.2583333333334, N
550960, 1530.4444444444443, N
551196, 1531.1, N
551410, 1531.6944444444443, N
551734, 1532.5944444444444, N
552051, 1533.475, N
552405, 1534.4583333333333, N
552677, 1535.213888888889, N
553045, 1536.236111111111, N
553248, 1536.8, N
553660, 1537.9444444444443, N
553955, 1538.763888888889, N
554236, 1539.5444444444445, N
554452, 1540.1444444444444, N
554677, 1540.7694444444444, N
555013, 1541.7027777777778, N
555208, 1542.2444444444445, N
555477, 1542.9916666666666, N
555764, 1543.7888888888888, N
556089, 1544.6916666666666, N
556522, 1545.8944444444444, N
556852, 1546.8111111111111, N
557127, 1547.575, N
557371, 1548.2527777777777, N
557625, 1548.9583333333333, N
557824, 1549.5111111111112, N
558166, 1550.4611111111112, N
558363, 1551.0083333333334, N
558674, 1551.8722222222223, N
558941, 1552.6138888888888, N
559195, 1553.3194444444443, N
559448, 1554.0222222222221, N
559709, 1554.7472222222223, N
560050, 1555.6944444444443, N
560358, 1556.55, N
560612, 1557.2555555555555, N
560948, 1558.1888888888889, N
561270, 1559.0833333333333, N
561511, 1559.7527777777777, N
561828, 1560.6333333333334, N
562142, 1561.5055555555555, N
562371, 1562.1416666666667, N
562625, 1562.8472222222222, N
562908, 1563.6333333333334, N
563311, 1564.7527777777777, N
563613, 1565.5916666666667, N
563947, 1566.5194444444444, N
564283, 1567.4527777777778, N
564608, 1568.3555555555556, N
564905, 1569.1805555555557, N
565124, 1569.7888888888888, N
565327, 1570.3527777777779, N
565546, 1570.9611111111112, N
565803, 1571.675, N
566067, 1572.4083333333333, N
566380, 1573.2777777777778, N
566778, 1574.3833333333334, N
567110, 1575.3055555555557, N
567391, 1576.0861111111112, N
567635, 1576.763888888889, N
567911, 1577.5305555555556, N
568186, 1578.2944444444445, N
568533, 1579.2583333333334, N
568860, 1580.1666666666667, N
569213, 1581.1472222222221, N
569452, 1581.8111111111111, N
569691, 1582.475, N
569990, 1583.3055555555557, N
570250, 1584.0277777777778, N
570554, 1584.8722222222223, N
570887, 1585.7972222222222, N
571134, 1586.4833333333333, N
571409, 1587.2472222222223, N
571649, 1587.9138888888888, N
571931, 1588.6972222222223, N
572247, 1589.575, N
572563, 1590.4527777777778, N
572877, 1591.325, N
573207, 1592.2416666666666, N
573456, 1592.9333333333334, N
573731, 1593.6972222222223, N
573964, 1594.3444444444444, N
574260, 1595.1666666666667, N
574507, 1595.8527777777779, N
574897, 1596.9361111111111, N
575253, 1597.925, N
575509, 1598.6361111111112, N
575813, 1599.4805555555556, N
576113, 1600.3138888888889, N
576372, 1601.0333333333333, N
576589, 1601.6361111111112, V
576864, 1602.4, N
577295, 1603.5972222222222, N
577621, 1604.5027777777777, N
577856, 1605.1555555555556, N
578154, 1605.9833333333333, N
578530, 1607.0277777777778, N
578805, 1607.7916666666667, N
579126, 1608.6833333333334, N
579392, 1609.4222222222222, N
579652, 1610.1444444444444, N
579904, 1610.8444444444444, N
580196, 1611.6555555555556, N
580531, 1612.5861111111112, N
580801, 1613.3361111111112, N
581116, 1614.2111111111112, N
581373, 1614.925, N
581732, 1615.9222222222222, N
581950, 1616.5277777777778, N
582317, 1617.5472222222222, N
582530, 1618.138888888889, N
582807, 1618.9083333333333, N
583080, 1619.6666666666667, N
583392, 1620.5333333333333, N
583589, 1621.0805555555555, V
583914, 1621.9833333333333, N
584227, 1622.8527777777779, N
584456, 1623.4888888888888, N
584711, 1624.1972222222223, N
584976, 1624.9333333333334, N
585199, 1625.5527777777777, N
585458, 1626.2722222222221, N
585682, 1626.8944444444444, N
585992, 1627.7555555555555, N
586308, 1628.6333333333334, N
586638, 1629.55, N
587010, 1630.5833333333333, N
587231, 1631.1972222222223, N
587476, 1631.8777777777777, N
587707, 1632.5194444444444, N
588097, 1633.6027777777779, N
588309, 1634.1916666666666, N
588628, 1635.0777777777778, N
588904, 1635.8444444444444, N
589144, 1636.5111111111112, N
589466, 1637.4055555555556, N
589743, 1638.175, N
589965, 1638.7916666666667, N
590253, 1639.5916666666667, N
590546, 1640.4055555555556, N
590850, 1641.25, N
591114, 1641.9833333333333, N
591391, 1642.7527777777777, N
591607, 1643.3527777777779, V
591936, 1644.2666666666667, N
592296, 1645.2666666666667, N
592633, 1646.2027777777778, N
592930, 1647.0277777777778, N
593233, 1647.8694444444445, N
593529, 1648.6916666666666, N
593887, 1649.6861111111111, N
594183, 1650.5083333333334, N
594444, 1651.2333333333333, N
594737, 1652.0472222222222, N
595042, 1652.8944444444444, N
595393, 1653.8694444444445, N
595702, 1654.7277777777779, N
595954, 1655.4277777777777, N
596251, 1656.2527777777777, N
596597, 1657.213888888889, N
596913, 1658.0916666666667, N
597169, 1658.8027777777777, V
597533, 1659.8138888888889, N
597804, 1660.5666666666666, N
598062, 1661.2833333333333, N
598279, 1661.8861111111112, N
598537, 1662.6027777777779, N
598818, 1663.3833333333334, N
599039, 1663.9972222222223, N
599314, 1664.7611111111112, N
599569, 1665.4694444444444, N
599853, 1666.2583333333334, N
600065, 1666.8472222222222, V
600343, 1667.6194444444445, N
600760, 1668.7777777777778, N
601098, 1669.7166666666667, N
601399, 1670.5527777777777, N
601689, 1671.3583333333333, N
601958, 1672.1055555555556, N
602288, 1673.0222222222221, N
602553, 1673.7583333333334, N
602827, 1674.5194444444444, N
603115, 1675.3194444444443, N
603323, 1675.8972222222221, N
603660, 1676.8333333333333, N
603975, 1677.7083333333333, N
604254, 1678.4833333333333, N
604592, 1679.4222222222222, N
604861, 1680.1694444444445, N
605285, 1681.3472222222222, N
605565, 1682.125, N
605861, 1682.9472222222223, N
606168, 1683.8, N
606387, 1684.4083333333333, N
606665, 1685.1805555555557, N
606926, 1685.9055555555556, N
607401, 1687.225, N
607787, 1688.2972222222222, N
608094, 1689.15, N
608421, 1690.0583333333334, N
608639, 1690.6638888888888, N
608955, 1691.5416666666667, N
609390, 1692.75, N
609700, 1693.611111111111, N
609963, 1694.3416666666667, N
610246, 1695.1277777777777, N
610577, 1696.0472222222222, N
610865, 1696.8472222222222, N
611199, 1697.775, N
611457, 1698.4916666666666, N
611760, 1699.3333333333333, N
612089, 1700.2472222222223, N
612368, 1701.0222222222221, N
612749, 1702.0805555555555, N
612966, 1702.6833333333334, N
613225, 1703.4027777777778, N
613501, 1704.1694444444445, N
613803, 1705.0083333333334, N
614093, 1705.8138888888889, N
614383, 1706.6194444444445, N
614681, 1707.4472222222223, N
615051, 1708.475, N
615364, 1709.3444444444444, N
615614, 1710.0388888888888, N
615825, 1710.625, N
616099, 1711.3861111111112, N
616383, 1712.175, N
616683, 1713.0083333333334, N
616990, 1713.861111111111, N
617273, 1714.6472222222221, N
617541, 1715.3916666666667, N
617794, 1716.0944444444444, N
618236, 1717.3222222222223, N
618486, 1718.0166666666667, N
618725, 1718.6805555555557, N
619026, 1719.5166666666667, N
619322, 1720.338888888889, N
619621, 1721.1694444444445, N
619891, 1721.9194444444445, N
620238, 1722.8833333333334, N
620546, 1723.7388888888888, N
620762, 1724.338888888889, V
621070, 1725.1944444444443, N
621288, 1725.8, N
621560, 1726.5555555555557, N
621773, 1727.1472222222221, N
622026, 1727.85, N
622289, 1728.5805555555555, N
622512, 1729.2, N
622796, 1729.9888888888888, N
623047, 1730.6861111111111, N
623324, 1731.4555555555555, N
623647, 1732.3527777777779, N
623918, 1733.1055555555556, N
624215, 1733.9305555555557, N
624505, 1734.736111111111, N
624815, 1735.5972222222222, N
625107, 1736.4083333333333, N
625388, 1737.1888888888889, N
625706, 1738.0722222222223, N
625917, 1738.6583333333333, V
626223, 1739.5083333333334, N
626515, 1740.3194444444443, N
626805, 1741.125, N
627109, 1741.9694444444444, N
627331, 1742.5861111111112, N
627658, 1743.4944444444445, N
627990, 1744.4166666666667, N
628197, 1744.9916666666666, V
628576, 1746.0444444444445, N
628772, 1746.588888888889, N
629046, 1747.35, N
629326, 1748.1277777777777, N
629603, 1748.8972222222221, N
629832, 1749.5333333333333, N
630048, 1750.1333333333334, N
630350, 1750.9722222222222, N
630665, 1751.8472222222222, N
630961, 1752.6694444444445, N
631249, 1753.4694444444444, N
631546, 1754.2944444444445, N
631843, 1755.1194444444445, N
632147, 1755.963888888889, N
632436, 1756.7666666666667, N
632728, 1757.5777777777778, N
633032, 1758.4222222222222, N
633323, 1759.2305555555556, N
633614, 1760.0388888888888, N
633909, 1760.8583333333333, N
634197, 1761.6583333333333, N
634427, 1762.2972222222222, N
634713, 1763.0916666666667, N
634991, 1763.8638888888888, N
635412, 1765.0333333333333, N
635714, 1765.8722222222223, N
635932, 1766.4777777777779, N
636195, 1767.2083333333333, N
636465, 1767.9583333333333, N
636786, 1768.85, N
637066, 1769.6277777777777, N
637503, 1770.8416666666667, N
637807, 1771.6861111111111, N
638108, 1772.5222222222221, N
638363, 1773.2305555555556, N
638751, 1774.3083333333334, N
638990, 1774.9722222222222, N
639211, 1775.5861111111112, N
639578, 1776.6055555555556, N
639805, 1777.236111111111, N
640170, 1778.25, N
640467, 1779.075, N
640789, 1779.9694444444444, N
641082, 1780.7833333333333, N
641297, 1781.3805555555555, N
641668, 1782.411111111111, N
641976, 1783.2666666666667, N
642311, 1784.1972222222223, N
642605, 1785.013888888889, N
642844, 1785.6777777777777, N
643200, 1786.6666666666667, N
643425, 1787.2916666666667, N
643651, 1787.9194444444445, N
643983, 1788.8416666666667, N
644338, 1789.8277777777778, N
644647, 1790.6861111111111, N
644930, 1791.4722222222222, N
645227, 1792.2972222222222, N
645446, 1792.9055555555556, N
645759, 1793.775, N
646065, 1794.625, N
646270, 1795.1944444444443, V
646560, 1796.0, N
646833, 1796.7583333333334, N
647143, 1797.6194444444445, N
647438, 1798.4388888888889, N
647880, 1799.6666666666667, N
648128, 1800.3555555555556, N
648397, 1801.1027777777779, N
648690, 1801.9166666666667, N
648836, 1802.3222222222223, V
649174, 1803.2611111111112, N
649448, 1804.0222222222221, N
649737, 1804.825, N
