0, 0.0, +
28, 0.07777777777777778, N
313, 0.8694444444444445, N
612, 1.7, N
916, 2.5444444444444443, N
1213, 3.3694444444444445, N
1518, 4.216666666666667, N
1816, 5.044444444444444, N
2121, 5.891666666666667, N
2424, 6.733333333333333, N
2723, 7.563888888888889, N
3026, 8.405555555555555, N
3330, 9.25, N
3623, 10.063888888888888, N
3925, 10.902777777777779, N
4225, 11.73611111111111, N
4531, 12.58611111111111, N
4832, 13.422222222222222, N
5128, 14.244444444444444, N
5434, 15.094444444444445, N
5741, 15.947222222222223, N
6034, 16.761111111111113, N
6340, 17.61111111111111, N
6638, 18.43888888888889, N
6942, 19.283333333333335, N
7244, 20.122222222222224, N
7536, 20.933333333333334, N
7841, 21.780555555555555, N
8143, 22.619444444444444, N
8440, 23.444444444444443, N
8739, 24.275, N
9038, 25.105555555555554, N
9343, 25.95277777777778, N
9638, 26.772222222222222, N
9934, 27.594444444444445, N
10238, 28.43888888888889, N
10537, 29.269444444444446, N
10834, 30.094444444444445, N
11139, 30.941666666666666, N
11437, 31.769444444444446, N
11743, 32.61944444444445, N
12040, 33.44444444444444, N
12335, 34.263888888888886, N
12645, 35.125, N
12948, 35.96666666666667, N
13244, 36.78888888888889, N
13550, 37.638888888888886, N
13847, 38.46388888888889, N
14155, 39.31944444444444, N
14453, 40.147222222222226, N
14754, 40.983333333333334, N
15066, 41.85, N
15366, 42.68333333333333, N
15659, 43.49722222222222, N
15962, 44.33888888888889, N
16259, 45.16388888888889, N
16552, 45.977777777777774, N
16846, 46.794444444444444, N
17140, 47.611111111111114, N
17443, 48.452777777777776, N
17742, 49.28333333333333, N
17936, 49.82222222222222, A
18288, 50.8, N
18598, 51.66111111111111, N
18908, 52.522222222222226, N
19216, 53.37777777777778, N
19522, 54.227777777777774, N
19839, 55.108333333333334, N
20147, 55.96388888888889, N
20442, 56.78333333333333, N
20740, 57.611111111111114, N
21047, 58.46388888888889, N
21349, 59.30277777777778, N
21643, 60.11944444444445, N
21945, 60.958333333333336, N
22248, 61.8, N
22543, 62.61944444444445, N
22843, 63.452777777777776, N
23147, 64.29722222222222, N
23454, 65.15, N
23759, 65.99722222222222, N
24060, 66.83333333333333, N
24372, 67.7, N
24678, 68.55, N
24978, 69.38333333333334, N
25283, 70.23055555555555, N
25588, 71.07777777777778, N
25894, 71.92777777777778, N
26200, 72.77777777777777, N
26505, 73.625, N
26813, 74.48055555555555, N
27120, 75.33333333333333, N
27424, 76.17777777777778, N
27728, 77.02222222222223, N
28039, 77.8861111111111, N
28343, 78.73055555555555, N
28640, 79.55555555555556, N
28950, 80.41666666666667, N
29254, 81.2611111111111, N
29548, 82.07777777777778, N
29848, 82.91111111111111, N
30144, 83.73333333333333, N
30446, 84.57222222222222, N
30742, 85.39444444444445, N
31031, 86.19722222222222, N
31341, 87.05833333333334, N
31649, 87.91388888888889, N
31944, 88.73333333333333, N
32245, 89.56944444444444, N
32542, 90.39444444444445, N
32844, 91.23333333333333, N
33142, 92.06111111111112, N
33437, 92.88055555555556, N
33739, 93.71944444444445, N
34037, 94.54722222222222, N
34329, 95.35833333333333, N
34627, 96.18611111111112, N
34927, 97.01944444444445, N
35236, 97.87777777777778, N
35542, 98.72777777777777, N
35848, 99.57777777777778, N
36160, 100.44444444444444, N
36467, 101.29722222222222, N
36771, 102.14166666666667, N
37076, 102.9888888888889, N
37388, 103.85555555555555, N
37696, 104.71111111111111, N
38002, 105.56111111111112, N
38313, 106.425, N
38621, 107.28055555555555, N
38924, 108.12222222222222, N
39233, 108.98055555555555, N
39538, 109.82777777777778, N
39847, 110.68611111111112, N
40152, 111.53333333333333, N
40455, 112.375, N
40767, 113.24166666666666, N
41068, 114.07777777777778, N
41365, 114.90277777777777, N
41673, 115.75833333333334, N
41977, 116.60277777777777, N
42280, 117.44444444444444, N
42578, 118.27222222222223, N
42875, 119.09722222222223, N
43182, 119.95, N
43484, 120.78888888888889, N
43782, 121.61666666666666, N
44084, 122.45555555555555, N
44390, 123.30555555555556, N
44697, 124.15833333333333, N
44997, 124.99166666666666, N
45297, 125.825, N
45607, 126.68611111111112, N
45912, 127.53333333333333, N
46210, 128.36111111111111, N
46507, 129.1861111111111, N
46806, 130.01666666666668, N
47108, 130.85555555555555, N
47404, 131.67777777777778, N
47701, 132.50277777777777, N
48008, 133.35555555555555, N
48310, 134.19444444444446, N
48610, 135.02777777777777, N
48908, 135.85555555555555, N
49214, 136.70555555555555, N
49522, 137.5611111111111, N
49823, 138.3972222222222, N
50129, 139.24722222222223, N
50433, 140.09166666666667, N
50731, 140.91944444444445, N
51029, 141.74722222222223, N
51330, 142.58333333333334, N
51633, 143.425, N
51936, 144.26666666666668, N
52237, 145.1027777777778, N
52542, 145.95, N
52849, 146.80277777777778, N
53148, 147.63333333333333, N
53452, 148.4777777777778, N
53761, 149.3361111111111, N
54069, 150.19166666666666, N
54367, 151.01944444444445, N
54663, 151.84166666666667, N
54972, 152.7, N
55278, 153.55, N
55573, 154.36944444444444, N
55871, 155.19722222222222, N
56175, 156.04166666666666, N
56481, 156.89166666666668, N
56780, 157.72222222222223, N
57079, 158.55277777777778, N
57389, 159.4138888888889, N
57692, 160.25555555555556, N
57991, 161.0861111111111, N
58294, 161.92777777777778, N
58597, 162.76944444444445, N
58898, 163.60555555555555, N
59198, 164.4388888888889, N
59497, 165.26944444444445, N
59798, 166.10555555555555, N
60095, 166.93055555555554, N
60391, 167.75277777777777, N
60694, 168.59444444444443, N
61003, 169.45277777777778, N
61302, 170.28333333333333, N
61604, 171.12222222222223, N
61916, 171.98888888888888, N
62222, 172.8388888888889, N
62520, 173.66666666666666, N
62819, 174.49722222222223, N
63122, 175.3388888888889, N
63432, 176.2, N
63726, 177.01666666666668, N
64024, 177.84444444444443, N
64332, 178.7, N
64633, 179.5361111111111, N
64931, 180.36388888888888, N
65229, 181.19166666666666, N
65529, 182.025, N
65836, 182.87777777777777, N
66136, 183.7111111111111, N
66437, 184.54722222222222, N
66747, 185.40833333333333, N
67045, 186.23611111111111, N
67342, 187.0611111111111, N
67641, 187.89166666666668, N
67943, 188.73055555555555, N
68244, 189.56666666666666, N
68541, 190.39166666666668, N
68844, 191.23333333333332, N
69149, 192.08055555555555, N
69447, 192.90833333333333, N
69746, 193.73888888888888, N
70049, 194.58055555555555, N
70352, 195.42222222222222, N
70653, 196.25833333333333, N
70952, 197.0888888888889, N
71258, 197.9388888888889, N
71555, 198.76388888888889, N
71850, 199.58333333333334, N
72150, 200.41666666666666, N
72449, 201.24722222222223, N
72752, 202.0888888888889, N
73049, 202.9138888888889, N
73343, 203.73055555555555, N
73657, 204.6027777777778, N
73962, 205.45, N
74259, 206.275, N
74563, 207.11944444444444, N
74865, 207.95833333333334, N
75175, 208.81944444444446, N
75476, 209.65555555555557, N
75769, 210.46944444444443, N
76082, 211.3388888888889, N
76390, 212.19444444444446, N
76689, 213.025, N
76991, 213.86388888888888, N
77295, 214.70833333333334, N
77608, 215.57777777777778, N
77910, 216.41666666666666, N
78213, 217.25833333333333, N
78523, 218.11944444444444, N
78832, 218.9777777777778, N
79132, 219.8111111111111, N
79439, 220.6638888888889, N
79748, 221.5222222222222, N
80051, 222.36388888888888, N
80356, 223.2111111111111, N
80667, 224.075, N
80981, 224.94722222222222, N
81293, 225.8138888888889, N
81608, 226.6888888888889, N
81918, 227.55, N
82233, 228.425, N
82533, 229.25833333333333, N
82832, 230.0888888888889, N
83151, 230.975, N
83459, 231.83055555555555, N
83766, 232.68333333333334, N
84076, 233.54444444444445, N
84383, 234.3972222222222, N
84702, 235.28333333333333, N
85016, 236.15555555555557, N
85326, 237.01666666666668, N
85646, 237.90555555555557, N
85959, 238.775, N
86275, 239.65277777777777, N
86593, 240.5361111111111, N
86923, 241.45277777777778, N
87244, 242.34444444444443, N
87566, 243.23888888888888, N
87900, 244.16666666666666, N
88221, 245.05833333333334, N
88531, 245.91944444444445, N
88846, 246.79444444444445, N
89166, 247.68333333333334, N
89483, 248.5638888888889, N
89795, 249.43055555555554, N
90113, 250.3138888888889, N
90424, 251.17777777777778, N
90730, 252.02777777777777, N
91038, 252.88333333333333, N
91342, 253.7277777777778, N
91655, 254.59722222222223, N
91962, 255.45, N
92271, 256.30833333333334, N
92588, 257.18888888888887, N
92900, 258.05555555555554, N
93210, 258.9166666666667, N
93518, 259.77222222222224, N
93830, 260.6388888888889, N
94144, 261.5111111111111, N
94449, 262.35833333333335, N
94760, 263.22222222222223, N
95074, 264.09444444444443, N
95380, 264.94444444444446, N
95697, 265.825, N
96007, 266.68611111111113, N
96322, 267.56111111111113, N
96634, 268.4277777777778, N
96950, 269.30555555555554, N
97268, 270.18888888888887, N
97582, 271.06111111111113, N
97898, 271.93888888888887, N
98215, 272.81944444444446, N
98549, 273.7472222222222, N
98875, 274.65277777777777, N
99204, 275.56666666666666, N
99553, 276.5361111111111, N
99883, 277.4527777777778, N
100209, 278.35833333333335, N
100537, 279.26944444444445, N
100866, 280.18333333333334, N
101194, 281.09444444444443, N
101512, 281.97777777777776, N
101843, 282.89722222222224, N
102161, 283.78055555555557, N
102472, 284.64444444444445, N
102787, 285.51944444444445, N
103098, 286.3833333333333, N
103413, 287.2583333333333, N
103723, 288.11944444444447, N
104032, 288.97777777777776, N
104345, 289.84722222222223, N
104652, 290.7, N
104953, 291.5361111111111, N
105264, 292.4, N
105578, 293.27222222222224, N
105883, 294.11944444444447, N
106190, 294.97222222222223, N
106512, 295.8666666666667, N
106829, 296.7472222222222, N
107139, 297.60833333333335, N
107448, 298.46666666666664, N
107762, 299.3388888888889, N
108082, 300.22777777777776, N
108389, 301.0805555555556, N
108705, 301.9583333333333, N
109026, 302.85, N
109340, 303.72222222222223, N
109653, 304.59166666666664, N
109966, 305.4611111111111, N
110275, 306.31944444444446, N
110580, 307.1666666666667, N
110881, 308.0027777777778, N
111185, 308.84722222222223, N
111494, 309.7055555555556, N
111789, 310.525, N
112097, 311.38055555555553, N
112405, 312.2361111111111, N
112717, 313.10277777777776, N
113025, 313.9583333333333, N
113323, 314.7861111111111, N
113631, 315.64166666666665, N
113941, 316.5027777777778, N
114240, 317.3333333333333, N
114536, 318.15555555555557, N
114733, 318.7027777777778, A
115090, 319.69444444444446, N
115400, 320.55555555555554, N
115708, 321.4111111111111, N
115985, 322.18055555555554, N
116136, 322.6, A
116457, 323.4916666666667, N
116779, 324.3861111111111, N
117080, 325.22222222222223, N
117388, 326.0777777777778, N
117699, 326.94166666666666, N
118002, 327.78333333333336, N
118321, 328.6694444444444, N
118632, 329.53333333333336, N
118940, 330.3888888888889, N
119249, 331.2472222222222, N
119550, 332.0833333333333, N
119855, 332.93055555555554, N
120155, 333.7638888888889, N
120342, 334.28333333333336, A
120706, 335.2944444444444, N
121030, 336.19444444444446, N
121330, 337.02777777777777, N
121632, 337.8666666666667, N
121934, 338.7055555555556, N
122236, 339.5444444444444, N
122535, 340.375, N
122833, 341.2027777777778, N
123135, 342.0416666666667, N
123433, 342.86944444444447, N
123727, 343.68611111111113, N
124023, 344.5083333333333, N
124325, 345.34722222222223, N
124623, 346.175, N
124918, 346.99444444444447, N
125220, 347.8333333333333, N
125526, 348.68333333333334, N
125831, 349.53055555555557, N
126142, 350.39444444444445, N
126460, 351.27777777777777, N
126793, 352.2027777777778, N
127113, 353.09166666666664, N
127427, 353.9638888888889, N
127753, 354.86944444444447, N
128066, 355.7388888888889, N
128371, 356.5861111111111, N
128686, 357.4611111111111, N
129002, 358.3388888888889, N
129312, 359.2, N
129620, 360.05555555555554, N
129940, 360.94444444444446, N
130260, 361.8333333333333, N
130573, 362.7027777777778, N
130887, 363.575, N
131203, 364.4527777777778, N
131527, 365.35277777777776, N
131848, 366.24444444444447, N
132182, 367.1722222222222, N
132527, 368.13055555555553, N
132859, 369.0527777777778, N
133191, 369.975, N
133514, 370.8722222222222, N
133845, 371.7916666666667, N
134171, 372.6972222222222, N
134494, 373.59444444444443, N
134817, 374.4916666666667, N
135134, 375.3722222222222, N
135455, 376.2638888888889, N
135774, 377.15, N
136098, 378.05, N
136417, 378.93611111111113, N
136731, 379.80833333333334, N
137055, 380.7083333333333, N
137369, 381.5805555555556, N
137674, 382.4277777777778, N
137991, 383.30833333333334, N
138306, 384.18333333333334, N
138615, 385.0416666666667, N
138925, 385.90277777777777, N
139241, 386.78055555555557, N
139557, 387.65833333333336, N
139873, 388.5361111111111, N
140190, 389.4166666666667, N
140500, 390.27777777777777, N
140823, 391.175, N
141138, 392.05, N
141450, 392.9166666666667, N
141774, 393.81666666666666, N
142086, 394.68333333333334, N
142396, 395.5444444444444, N
142708, 396.4111111111111, N
143016, 397.26666666666665, N
143325, 398.125, N
143627, 398.9638888888889, N
143926, 399.7944444444444, N
144234, 400.65, N
144425, 401.18055555555554, A
144764, 402.1222222222222, N
145076, 402.9888888888889, N
145384, 403.84444444444443, N
145616, 404.4888888888889, ~
145691, 404.6972222222222, N
145985, 405.5138888888889, N
146275, 406.31944444444446, N
146573, 407.14722222222224, N
146860, 407.94444444444446, N
146963, 408.23055555555555, +
147063, 408.5083333333333, A
147170, 408.80555555555554, ~
147277, 409.10277777777776, A
147436, 409.5444444444444, A
147664, 410.1777777777778, +
147762, 410.45, N
148055, 411.2638888888889, N
148195, 411.65277777777777, +
148274, 411.8722222222222, A
148424, 412.2888888888889, A
148563, 412.675, A
148730, 413.1388888888889, +
148784, 413.2888888888889, N
149110, 414.19444444444446, N
149419, 415.0527777777778, N
149531, 415.3638888888889, +
149615, 415.59722222222223, A
149758, 415.99444444444447, A
149896, 416.3777777777778, A
150047, 416.7972222222222, A
150266, 417.40555555555557, +
150343, 417.61944444444447, N
150681, 418.55833333333334, N
150801, 418.89166666666665, +
150862, 419.06111111111113, A
151013, 419.48055555555555, A
151152, 419.8666666666667, A
151469, 420.7472222222222, +
151556, 420.9888888888889, N
151884, 421.9, N
152209, 422.8027777777778, N
152473, 423.5361111111111, A
152848, 424.5777777777778, N
153175, 425.4861111111111, N
153516, 426.43333333333334, N
153838, 427.3277777777778, N
154150, 428.19444444444446, N
154471, 429.0861111111111, N
154793, 429.98055555555555, N
155111, 430.8638888888889, N
155174, 431.0388888888889, +
155307, 431.40833333333336, A
155453, 431.81388888888887, A
155685, 432.4583333333333, A
155986, 433.2944444444444, +
156073, 433.5361111111111, N
156414, 434.48333333333335, N
156748, 435.4111111111111, N
157082, 436.3388888888889, N
157418, 437.27222222222224, N
157748, 438.18888888888887, N
158082, 439.1166666666667, N
158359, 439.8861111111111, A
158745, 440.9583333333333, N
159078, 441.8833333333333, N
159405, 442.7916666666667, N
159732, 443.7, N
160046, 444.5722222222222, N
160366, 445.4611111111111, N
160690, 446.3611111111111, N
161004, 447.23333333333335, N
161331, 448.14166666666665, N
161650, 449.02777777777777, N
161971, 449.9194444444444, N
162282, 450.78333333333336, N
162589, 451.6361111111111, N
162902, 452.50555555555553, N
163208, 453.35555555555555, N
163505, 454.18055555555554, N
163816, 455.0444444444444, N
164131, 455.9194444444444, N
164447, 456.7972222222222, N
164766, 457.68333333333334, N
165089, 458.5805555555556, N
165408, 459.46666666666664, N
165730, 460.3611111111111, N
166054, 461.2611111111111, N
166375, 462.15277777777777, N
166702, 463.06111111111113, N
167025, 463.9583333333333, N
167348, 464.85555555555555, N
167671, 465.7527777777778, N
167982, 466.6166666666667, N
168303, 467.5083333333333, N
168618, 468.3833333333333, N
168943, 469.2861111111111, N
169263, 470.175, N
169583, 471.06388888888887, N
169918, 471.99444444444447, N
170245, 472.90277777777777, N
170575, 473.81944444444446, N
170912, 474.75555555555553, N
171242, 475.6722222222222, N
171568, 476.5777777777778, N
171886, 477.4611111111111, N
172215, 478.375, N
172537, 479.26944444444445, N
172848, 480.1333333333333, N
173174, 481.0388888888889, N
173511, 481.975, N
173836, 482.8777777777778, N
174157, 483.76944444444445, N
174491, 484.6972222222222, N
174824, 485.6222222222222, N
175151, 486.53055555555557, N
175474, 487.4277777777778, N
175797, 488.325, N
176126, 489.2388888888889, N
176449, 490.1361111111111, N
176776, 491.0444444444444, N
177112, 491.97777777777776, N
177433, 492.86944444444447, N
177768, 493.8, N
178100, 494.72222222222223, N
178434, 495.65, N
178763, 496.56388888888887, N
179093, 497.48055555555555, N
179436, 498.43333333333334, N
179772, 499.3666666666667, N
180114, 500.31666666666666, N
180451, 501.2527777777778, N
180787, 502.18611111111113, N
181116, 503.1, N
181448, 504.02222222222224, N
181790, 504.97222222222223, N
182126, 505.90555555555557, N
182466, 506.85, N
182805, 507.7916666666667, N
183145, 508.7361111111111, N
183470, 509.6388888888889, N
183802, 510.56111111111113, N
184142, 511.50555555555553, N
184474, 512.4277777777778, N
184803, 513.3416666666667, N
185127, 514.2416666666667, N
185461, 515.1694444444445, N
185783, 516.0638888888889, N
186105, 516.9583333333334, N
186443, 517.8972222222222, N
186765, 518.7916666666666, N
187095, 519.7083333333334, N
187424, 520.6222222222223, N
187757, 521.5472222222222, N
188080, 522.4444444444445, N
188405, 523.3472222222222, N
188740, 524.2777777777778, N
189057, 525.1583333333333, N
189369, 526.025, N
189699, 526.9416666666667, N
190036, 527.8777777777777, N
190373, 528.8138888888889, N
190706, 529.7388888888889, N
191048, 530.6888888888889, N
191388, 531.6333333333333, N
191722, 532.5611111111111, N
192059, 533.4972222222223, N
192398, 534.4388888888889, N
192732, 535.3666666666667, N
193058, 536.2722222222222, N
193396, 537.2111111111111, N
193720, 538.1111111111111, N
194047, 539.0194444444444, N
194375, 539.9305555555555, N
194705, 540.8472222222222, N
195031, 541.7527777777777, N
195354, 542.65, N
195692, 543.5888888888888, N
196024, 544.5111111111111, N
196350, 545.4166666666666, N
196682, 546.3388888888888, N
197014, 547.2611111111111, N
197344, 548.1777777777778, N
197673, 549.0916666666667, N
198012, 550.0333333333333, N
198338, 550.9388888888889, N
198656, 551.8222222222222, N
198977, 552.7138888888888, N
199315, 553.6527777777778, N
199640, 554.5555555555555, N
199959, 555.4416666666667, N
200198, 556.1055555555556, A
200574, 557.15, N
200908, 558.0777777777778, N
201225, 558.9583333333334, N
201547, 559.8527777777778, N
201875, 560.7638888888889, N
202194, 561.65, N
202519, 562.5527777777778, N
202847, 563.4638888888888, N
203169, 564.3583333333333, N
203493, 565.2583333333333, N
203819, 566.1638888888889, N
204146, 567.0722222222222, N
204471, 567.975, N
204794, 568.8722222222223, N
205127, 569.7972222222222, N
205452, 570.7, N
205773, 571.5916666666667, N
206104, 572.5111111111111, N
206429, 573.4138888888889, N
206743, 574.2861111111112, N
207059, 575.1638888888889, N
207388, 576.0777777777778, N
207713, 576.9805555555556, N
208036, 577.8777777777777, N
208362, 578.7833333333333, N
208699, 579.7194444444444, N
209036, 580.6555555555556, N
209367, 581.575, N
209713, 582.5361111111112, N
210052, 583.4777777777778, N
210383, 584.3972222222222, N
210712, 585.3111111111111, N
211046, 586.2388888888889, N
211382, 587.1722222222222, N
211708, 588.0777777777778, N
212044, 589.0111111111111, N
212381, 589.9472222222222, N
212707, 590.8527777777778, N
213036, 591.7666666666667, N
213371, 592.6972222222222, N
213706, 593.6277777777777, N
214039, 594.5527777777778, N
214380, 595.5, N
214719, 596.4416666666667, N
215046, 597.35, N
215382, 598.2833333333333, N
215718, 599.2166666666667, N
216048, 600.1333333333333, N
216382, 601.0611111111111, N
216722, 602.0055555555556, N
217056, 602.9333333333333, N
217385, 603.8472222222222, N
217718, 604.7722222222222, N
218053, 605.7027777777778, N
218387, 606.6305555555556, N
218711, 607.5305555555556, N
219048, 608.4666666666667, N
219383, 609.3972222222222, N
219702, 610.2833333333333, N
220026, 611.1833333333333, N
220344, 612.0666666666667, N
220672, 612.9777777777778, N
220982, 613.8388888888888, N
221295, 614.7083333333334, N
221620, 615.6111111111111, N
221936, 616.4888888888889, N
222254, 617.3722222222223, N
222559, 618.2194444444444, N
222885, 619.125, N
223197, 619.9916666666667, N
223507, 620.8527777777778, N
223825, 621.7361111111111, N
224020, 622.2777777777778, A
224370, 623.25, N
224674, 624.0944444444444, N
224982, 624.95, N
225287, 625.7972222222222, N
225493, 626.3694444444444, A
225834, 627.3166666666667, N
226151, 628.1972222222222, N
226457, 629.0472222222222, N
226758, 629.8833333333333, N
227062, 630.7277777777778, N
227379, 631.6083333333333, N
227695, 632.4861111111111, N
227999, 633.3305555555555, N
228185, 633.8472222222222, A
228330, 634.25, A
228647, 635.1305555555556, N
228971, 636.0305555555556, N
229289, 636.9138888888889, N
229492, 637.4777777777778, A
229868, 638.5222222222222, N
230193, 639.425, N
230513, 640.3138888888889, N
230836, 641.2111111111111, N
231153, 642.0916666666667, N
231472, 642.9777777777778, N
231798, 643.8833333333333, N
231880, 644.1111111111111, +
231989, 644.4138888888889, A
232136, 644.8222222222222, A
232288, 645.2444444444444, A
232461, 645.725, A
232636, 646.2111111111111, +
232714, 646.4277777777778, N
233100, 647.5, N
233428, 648.4111111111112, N
233510, 648.6388888888889, +
233600, 648.8888888888889, A
233746, 649.2944444444445, A
233893, 649.7027777777778, A
234137, 650.3805555555556, +
234229, 650.6361111111111, N
234588, 651.6333333333333, N
234916, 652.5444444444445, N
235254, 653.4833333333333, N
235595, 654.4305555555555, N
235920, 655.3333333333334, N
236258, 656.2722222222222, N
236590, 657.1944444444445, N
236931, 658.1416666666667, N
237277, 659.1027777777778, N
237620, 660.0555555555555, N
237962, 661.0055555555556, N
238302, 661.95, N
238649, 662.9138888888889, N
238986, 663.85, N
239328, 664.8, N
239659, 665.7194444444444, N
239991, 666.6416666666667, N
240325, 667.5694444444445, N
240658, 668.4944444444444, N
241011, 669.475, N
241352, 670.4222222222222, N
241691, 671.3638888888889, N
242032, 672.3111111111111, N
242381, 673.2805555555556, N
242727, 674.2416666666667, N
243068, 675.1888888888889, N
243416, 676.1555555555556, N
243765, 677.125, N
244113, 678.0916666666667, N
244455, 679.0416666666666, N
244814, 680.0388888888889, N
245159, 680.9972222222223, N
245492, 681.9222222222222, N
245835, 682.875, N
246179, 683.8305555555555, N
246531, 684.8083333333333, N
246863, 685.7305555555556, N
247206, 686.6833333333333, N
247550, 687.6388888888889, N
247892, 688.5888888888888, N
248235, 689.5416666666666, N
248582, 690.5055555555556, N
248926, 691.4611111111111, N
249269, 692.4138888888889, N
249618, 693.3833333333333, N
249960, 694.3333333333334, N
250306, 695.2944444444445, N
250659, 696.275, N
251013, 697.2583333333333, N
251355, 698.2083333333334, N
251704, 699.1777777777778, N
252054, 700.15, N
252392, 701.0888888888888, N
252736, 702.0444444444445, N
253080, 703.0, N
253429, 703.9694444444444, N
253764, 704.9, N
254109, 705.8583333333333, N
254452, 706.8111111111111, N
254786, 707.7388888888889, N
255124, 708.6777777777778, N
255470, 709.6388888888889, N
255808, 710.5777777777778, N
256145, 711.5138888888889, N
256491, 712.475, N
256843, 713.4527777777778, N
257186, 714.4055555555556, N
257536, 715.3777777777777, N
257897, 716.3805555555556, N
258238, 717.3277777777778, N
258575, 718.2638888888889, N
258928, 719.2444444444444, N
259266, 720.1833333333333, N
259596, 721.1, N
259920, 722.0, N
260256, 722.9333333333333, N
260577, 723.825, N
260903, 724.7305555555556, N
261239, 725.6638888888889, N
261557, 726.5472222222222, N
261884, 727.4555555555555, N
262214, 728.3722222222223, N
262542, 729.2833333333333, N
262868, 730.1888888888889, N
263194, 731.0944444444444, N
263529, 732.025, N
263855, 732.9305555555555, N
264170, 733.8055555555555, N
264496, 734.7111111111111, N
264830, 735.6388888888889, N
265155, 736.5416666666666, N
265477, 737.4361111111111, N
265815, 738.375, N
266147, 739.2972222222222, N
266467, 740.1861111111111, N
266786, 741.0722222222222, N
267126, 742.0166666666667, N
267460, 742.9444444444445, N
267790, 743.8611111111111, N
268143, 744.8416666666667, N
268491, 745.8083333333333, N
268827, 746.7416666666667, N
269166, 747.6833333333333, N
269508, 748.6333333333333, N
269849, 749.5805555555555, N
270183, 750.5083333333333, N
270524, 751.4555555555555, N
270849, 752.3583333333333, N
271170, 753.25, N
271503, 754.175, N
271840, 755.1111111111111, N
272178, 756.05, N
272520, 757.0, N
272869, 757.9694444444444, N
273214, 758.9277777777778, N
273550, 759.8611111111111, N
273896, 760.8222222222222, N
274243, 761.7861111111112, N
274582, 762.7277777777778, N
274914, 763.65, N
275261, 764.6138888888889, N
275595, 765.5416666666666, N
275923, 766.4527777777778, N
276255, 767.375, N
276594, 768.3166666666667, N
276930, 769.25, N
277257, 770.1583333333333, N
277600, 771.1111111111111, N
277930, 772.0277777777778, N
278264, 772.9555555555555, N
278597, 773.8805555555556, N
278928, 774.8, N
279258, 775.7166666666667, N
279587, 776.6305555555556, N
279932, 777.5888888888888, N
280265, 778.5138888888889, N
280593, 779.425, N
280922, 780.3388888888888, N
281256, 781.2666666666667, N
281590, 782.1944444444445, N
281916, 783.1, N
282252, 784.0333333333333, N
282588, 784.9666666666667, N
282917, 785.8805555555556, N
283236, 786.7666666666667, N
283568, 787.6888888888889, N
283898, 788.6055555555556, N
284215, 789.4861111111111, N
284542, 790.3944444444444, N
284870, 791.3055555555555, N
285202, 792.2277777777778, N
285532, 793.1444444444444, N
285874, 794.0944444444444, N
286220, 795.0555555555555, N
286551, 795.975, N
286900, 796.9444444444445, N
287235, 797.875, N
287557, 798.7694444444444, N
287891, 799.6972222222222, N
288232, 800.6444444444444, N
288561, 801.5583333333333, N
288886, 802.4611111111111, N
289229, 803.4138888888889, N
289573, 804.3694444444444, N
289902, 805.2833333333333, N
290239, 806.2194444444444, N
290580, 807.1666666666666, N
290921, 808.1138888888889, N
291257, 809.0472222222222, N
291603, 810.0083333333333, N
291940, 810.9444444444445, N
292269, 811.8583333333333, N
292595, 812.7638888888889, N
292927, 813.6861111111111, N
293247, 814.575, N
293560, 815.4444444444445, N
293895, 816.375, N
294217, 817.2694444444444, N
294539, 818.1638888888889, N
294868, 819.0777777777778, N
295199, 819.9972222222223, N
295527, 820.9083333333333, N
295848, 821.8, N
296046, 822.35, A
296419, 823.3861111111111, N
296748, 824.3, N
297070, 825.1944444444445, N
297391, 826.0861111111111, N
297723, 827.0083333333333, N
298055, 827.9305555555555, N
298389, 828.8583333333333, N
298613, 829.4805555555556, A
298985, 830.5138888888889, N
299328, 831.4666666666667, N
299661, 832.3916666666667, N
299987, 833.2972222222222, N
300224, 833.9555555555555, A
300586, 834.9611111111111, N
300920, 835.8888888888889, N
301239, 836.775, N
301550, 837.6388888888889, N
301867, 838.5194444444444, N
302202, 839.45, N
302538, 840.3833333333333, N
302853, 841.2583333333333, N
303183, 842.175, N
303513, 843.0916666666667, N
303842, 844.0055555555556, N
304177, 844.9361111111111, N
304511, 845.8638888888889, N
304743, 846.5083333333333, A
305125, 847.5694444444445, N
305466, 848.5166666666667, N
305800, 849.4444444444445, N
306124, 850.3444444444444, N
306426, 851.1833333333333, A
306777, 852.1583333333333, N
307107, 853.075, N
307434, 853.9833333333333, N
307619, 854.4972222222223, A
307768, 854.9111111111112, A
308008, 855.5777777777778, A
308364, 856.5666666666667, N
308712, 857.5333333333333, N
309053, 858.4805555555556, N
309397, 859.4361111111111, N
309598, 859.9944444444444, A
309976, 861.0444444444445, N
310336, 862.0444444444445, N
310678, 862.9944444444444, N
311014, 863.9277777777778, N
311361, 864.8916666666667, N
311715, 865.875, N
312060, 866.8333333333334, N
312395, 867.7638888888889, N
312745, 868.7361111111111, N
313085, 869.6805555555555, N
313419, 870.6083333333333, N
313761, 871.5583333333333, N
314109, 872.525, N
314453, 873.4805555555556, N
314802, 874.45, N
315161, 875.4472222222222, N
315514, 876.4277777777778, N
315866, 877.4055555555556, N
316217, 878.3805555555556, N
316564, 879.3444444444444, N
316902, 880.2833333333333, N
317257, 881.2694444444444, N
317607, 882.2416666666667, N
317947, 883.1861111111111, N
318289, 884.1361111111111, N
318638, 885.1055555555556, N
318984, 886.0666666666667, N
319318, 886.9944444444444, N
319668, 887.9666666666667, N
320004, 888.9, N
320341, 889.8361111111111, N
320682, 890.7833333333333, N
321027, 891.7416666666667, N
321366, 892.6833333333333, N
321703, 893.6194444444444, N
322038, 894.55, N
322371, 895.475, N
322703, 896.3972222222222, N
323036, 897.3222222222222, N
323368, 898.2444444444444, N
323690, 899.1388888888889, N
324010, 900.0277777777778, N
324348, 900.9666666666667, N
324672, 901.8666666666667, N
324994, 902.7611111111111, N
325329, 903.6916666666667, N
325676, 904.6555555555556, N
326009, 905.5805555555555, N
326335, 906.4861111111111, N
326675, 907.4305555555555, N
327003, 908.3416666666667, N
327342, 909.2833333333333, N
327670, 910.1944444444445, N
328005, 911.125, N
328334, 912.0388888888889, N
328550, 912.6388888888889, A
328945, 913.7361111111111, N
329294, 914.7055555555555, N
329631, 915.6416666666667, N
329970, 916.5833333333334, N
330306, 917.5166666666667, N
330634, 918.4277777777778, N
330969, 919.3583333333333, N
331313, 920.3138888888889, N
331658, 921.2722222222222, N
331990, 922.1944444444445, N
332323, 923.1194444444444, N
332673, 924.0916666666667, N
333005, 925.0138888888889, N
333335, 925.9305555555555, N
333538, 926.4944444444444, A
333925, 927.5694444444445, N
334266, 928.5166666666667, N
334601, 929.4472222222222, N
334938, 930.3833333333333, N
335269, 931.3027777777778, N
335594, 932.2055555555555, N
335935, 933.1527777777778, N
336263, 934.0638888888889, N
336579, 934.9416666666667, N
336909, 935.8583333333333, N
337250, 936.8055555555555, N
337583, 937.7305555555556, N
337907, 938.6305555555556, N
338249, 939.5805555555555, N
338588, 940.5222222222222, N
338924, 941.4555555555555, N
339258, 942.3833333333333, N
339605, 943.3472222222222, N
339953, 944.3138888888889, N
340302, 945.2833333333333, N
340652, 946.2555555555556, N
341008, 947.2444444444444, N
341357, 948.2138888888888, N
341716, 949.2111111111111, N
342085, 950.2361111111111, N
342455, 951.2638888888889, N
342833, 952.3138888888889, N
343198, 953.3277777777778, N
343553, 954.3138888888889, N
343916, 955.3222222222222, N
344276, 956.3222222222222, N
344632, 957.3111111111111, N
344970, 958.25, N
345324, 959.2333333333333, N
345683, 960.2305555555556, N
346020, 961.1666666666666, N
346366, 962.1277777777777, N
346718, 963.1055555555556, N
347053, 964.0361111111112, N
347389, 964.9694444444444, N
347728, 965.9111111111112, N
348066, 966.85, N
348400, 967.7777777777778, N
348747, 968.7416666666667, N
349104, 969.7333333333333, N
349452, 970.7, N
349817, 971.7138888888888, N
350188, 972.7444444444444, N
350550, 973.75, N
350921, 974.7805555555556, N
351297, 975.825, N
351671, 976.8638888888889, N
352033, 977.8694444444444, N
352406, 978.9055555555556, N
352764, 979.9, N
353114, 980.8722222222223, N
353466, 981.85, N
353815, 982.8194444444445, N
354160, 983.7777777777778, N
354505, 984.7361111111111, N
354846, 985.6833333333333, N
355179, 986.6083333333333, N
355519, 987.5527777777778, N
355857, 988.4916666666667, N
356190, 989.4166666666666, N
356527, 990.3527777777778, N
356882, 991.3388888888888, N
357232, 992.3111111111111, N
357577, 993.2694444444444, N
357922, 994.2277777777778, N
358279, 995.2194444444444, N
358629, 996.1916666666667, N
358965, 997.125, N
359316, 998.1, N
359651, 999.0305555555556, N
359987, 999.9638888888888, N
360327, 1000.9083333333333, N
360666, 1001.85, N
360911, 1002.5305555555556, A
361282, 1003.5611111111111, N
361630, 1004.5277777777778, N
361966, 1005.4611111111111, N
362287, 1006.3527777777778, N
362618, 1007.2722222222222, N
362963, 1008.2305555555556, N
363291, 1009.1416666666667, N
363620, 1010.0555555555555, N
363954, 1010.9833333333333, N
364296, 1011.9333333333333, N
364634, 1012.8722222222223, N
364965, 1013.7916666666666, N
365161, 1014.3361111111111, A
365319, 1014.775, A
365690, 1015.8055555555555, N
366039, 1016.775, N
366382, 1017.7277777777778, N
366712, 1018.6444444444444, N
366911, 1019.1972222222222, A
367299, 1020.275, N
367644, 1021.2333333333333, N
367983, 1022.175, N
368311, 1023.0861111111111, N
368657, 1024.0472222222222, N
368994, 1024.9833333333333, N
369329, 1025.9138888888888, N
369665, 1026.8472222222222, N
370009, 1027.8027777777777, N
370360, 1028.7777777777778, N
370703, 1029.7305555555556, N
371060, 1030.7222222222222, N
371409, 1031.6916666666666, N
371759, 1032.6638888888888, N
372114, 1033.65, N
372466, 1034.6277777777777, N
372813, 1035.5916666666667, N
373165, 1036.5694444444443, N
373522, 1037.5611111111111, N
373866, 1038.5166666666667, N
374225, 1039.513888888889, N
374585, 1040.513888888889, N
374952, 1041.5333333333333, N
375306, 1042.5166666666667, N
375670, 1043.5277777777778, N
376016, 1044.4888888888888, N
376353, 1045.425, N
376695, 1046.375, N
377047, 1047.3527777777779, N
377393, 1048.3138888888889, N
377734, 1049.2611111111112, N
378094, 1050.2611111111112, N
378439, 1051.2194444444444, N
378777, 1052.1583333333333, N
379124, 1053.1222222222223, N
379463, 1054.0638888888889, N
379797, 1054.9916666666666, N
380125, 1055.9027777777778, N
380465, 1056.8472222222222, N
380796, 1057.7666666666667, N
381136, 1058.7111111111112, N
381480, 1059.6666666666667, N
381832, 1060.6444444444444, N
382173, 1061.5916666666667, N
382525, 1062.5694444444443, N
382878, 1063.55, N
383223, 1064.5083333333334, N
383567, 1065.463888888889, N
383911, 1066.4194444444445, N
384261, 1067.3916666666667, N
384607, 1068.3527777777779, N
384972, 1069.3666666666666, N
385328, 1070.3555555555556, N
385675, 1071.3194444444443, N
386039, 1072.3305555555555, N
386406, 1073.35, N
386756, 1074.3222222222223, N
387104, 1075.2888888888888, N
387451, 1076.2527777777777, N
387792, 1077.2, N
388137, 1078.1583333333333, N
388477, 1079.1027777777779, N
388817, 1080.0472222222222, N
389152, 1080.9777777777779, N
389490, 1081.9166666666667, N
389825, 1082.8472222222222, N
390166, 1083.7944444444445, N
390502, 1084.7277777777779, N
390836, 1085.6555555555556, N
391170, 1086.5833333333333, N
391465, 1087.4027777777778, N
391817, 1088.3805555555555, N
392148, 1089.3, N
392468, 1090.1888888888889, N
392790, 1091.0833333333333, N
392984, 1091.6222222222223, A
393128, 1092.0222222222221, A
393496, 1093.0444444444445, N
393818, 1093.9388888888889, N
394153, 1094.8694444444445, N
394460, 1095.7222222222222, N
394799, 1096.6638888888888, N
395126, 1097.5722222222223, N
395453, 1098.4805555555556, N
395654, 1099.0388888888888, A
395864, 1099.6222222222223, A
396241, 1100.6694444444445, N
396588, 1101.6333333333334, N
396917, 1102.5472222222222, N
397133, 1103.1472222222221, A
397291, 1103.5861111111112, A
397660, 1104.611111111111, N
398013, 1105.5916666666667, N
398343, 1106.5083333333334, N
398676, 1107.4333333333334, N
399026, 1108.4055555555556, N
399363, 1109.3416666666667, N
399698, 1110.2722222222221, N
399887, 1110.7972222222222, A
400040, 1111.2222222222222, A
400418, 1112.2722222222221, N
400757, 1113.213888888889, N
401090, 1114.138888888889, N
401423, 1115.0638888888889, N
401754, 1115.9833333333333, N
402088, 1116.911111111111, N
402416, 1117.8222222222223, N
402744, 1118.7333333333333, N
403074, 1119.65, N
403420, 1120.611111111111, N
403757, 1121.5472222222222, N
404074, 1122.4277777777777, N
404389, 1123.3027777777777, N
404710, 1124.1944444444443, N
405041, 1125.1138888888888, N
405358, 1125.9944444444445, N
405665, 1126.8472222222222, N
406004, 1127.7888888888888, N
406326, 1128.6833333333334, N
406648, 1129.5777777777778, N
406969, 1130.4694444444444, N
407301, 1131.3916666666667, N
407630, 1132.3055555555557, N
407955, 1133.2083333333333, N
408296, 1134.1555555555556, N
408629, 1135.0805555555555, N
408961, 1136.0027777777777, N
409299, 1136.9416666666666, N
409650, 1137.9166666666667, N
409987, 1138.8527777777779, N
410332, 1139.8111111111111, N
410680, 1140.7777777777778, N
411019, 1141.7194444444444, N
411347, 1142.6305555555555, N
411695, 1143.5972222222222, N
412051, 1144.5861111111112, N
412387, 1145.5194444444444, N
412725, 1146.4583333333333, N
413072, 1147.4222222222222, N
413409, 1148.3583333333333, N
413743, 1149.286111111111, N
414071, 1150.1972222222223, N
414410, 1151.138888888889, N
414733, 1152.036111111111, N
415057, 1152.9361111111111, N
415392, 1153.8666666666666, N
415716, 1154.7666666666667, N
416042, 1155.6722222222222, N
416367, 1156.575, N
416638, 1157.3277777777778, N
416797, 1157.7694444444444, A
417143, 1158.7305555555556, N
417493, 1159.7027777777778, N
417834, 1160.65, N
418156, 1161.5444444444445, N
418496, 1162.4888888888888, N
418837, 1163.4361111111111, N
419171, 1164.3638888888888, N
419496, 1165.2666666666667, N
419834, 1166.2055555555555, N
420179, 1167.1638888888888, N
420510, 1168.0833333333333, N
420841, 1169.0027777777777, N
421177, 1169.9361111111111, N
421518, 1170.8833333333334, N
421846, 1171.7944444444445, N
422188, 1172.7444444444445, N
422530, 1173.6944444444443, N
422863, 1174.6194444444445, N
423199, 1175.5527777777777, N
423534, 1176.4833333333333, N
423862, 1177.3944444444444, N
424179, 1178.275, N
424513, 1179.2027777777778, N
424836, 1180.1, N
425151, 1180.975, N
425476, 1181.8777777777777, N
425810, 1182.8055555555557, N
426143, 1183.7305555555556, N
426479, 1184.6638888888888, N
426821, 1185.6138888888888, N
427167, 1186.575, N
427508, 1187.5222222222221, N
427843, 1188.4527777777778, N
428189, 1189.4138888888888, N
428527, 1190.3527777777779, N
428858, 1191.2722222222221, N
429202, 1192.2277777777779, N
429532, 1193.1444444444444, N
429855, 1194.0416666666667, N
430181, 1194.9472222222223, N
430514, 1195.8722222222223, N
430849, 1196.8027777777777, N
431172, 1197.7, N
431511, 1198.6416666666667, N
431844, 1199.5666666666666, N
432169, 1200.4694444444444, N
432510, 1201.4166666666667, N
432853, 1202.3694444444445, N
433194, 1203.3166666666666, N
433530, 1204.25, N
433879, 1205.2194444444444, N
434217, 1206.1583333333333, N
434553, 1207.0916666666667, N
434893, 1208.036111111111, N
435232, 1208.9777777777779, N
435559, 1209.8861111111112, N
435880, 1210.7777777777778, N
436214, 1211.7055555555555, N
436541, 1212.6138888888888, N
436801, 1213.3361111111112, A
437169, 1214.3583333333333, N
437504, 1215.2888888888888, N
437832, 1216.2, N
438029, 1216.7472222222223, A
438405, 1217.7916666666667, N
438754, 1218.7611111111112, N
439088, 1219.6888888888889, N
439429, 1220.6361111111112, N
439758, 1221.55, N
440095, 1222.486111111111, N
440418, 1223.3833333333334, N
440743, 1224.286111111111, N
441070, 1225.1944444444443, N
441382, 1226.0611111111111, N
441691, 1226.9194444444445, N
441897, 1227.4916666666666, A
442250, 1228.4722222222222, N
442562, 1229.338888888889, N
442874, 1230.2055555555555, N
443097, 1230.825, A
443253, 1231.2583333333334, A
443594, 1232.2055555555555, N
443915, 1233.0972222222222, N
444241, 1234.0027777777777, N
444319, 1234.2194444444444, +
444432, 1234.5333333333333, A
444582, 1234.95, A
444724, 1235.3444444444444, A
444898, 1235.8277777777778, A
445156, 1236.5444444444445, +
445251, 1236.8083333333334, N
445597, 1237.7694444444444, N
445847, 1238.463888888889, A
446035, 1238.986111111111, A
446375, 1239.9305555555557, N
446746, 1240.9611111111112, N
447092, 1241.9222222222222, N
447287, 1242.463888888889, A
447428, 1242.8555555555556, A
447744, 1243.7333333333333, N
448089, 1244.6916666666666, N
448420, 1245.611111111111, N
448752, 1246.5333333333333, N
449078, 1247.4388888888889, N
449404, 1248.3444444444444, N
449721, 1249.225, N
449938, 1249.8277777777778, A
450096, 1250.2666666666667, A
450469, 1251.3027777777777, N
450811, 1252.2527777777777, N
451154, 1253.2055555555555, N
451495, 1254.1527777777778, N
451837, 1255.1027777777779, N
452175, 1256.0416666666667, N
452517, 1256.9916666666666, N
452853, 1257.925, N
453184, 1258.8444444444444, N
453517, 1259.7694444444444, N
453865, 1260.736111111111, N
454195, 1261.6527777777778, N
454434, 1262.3166666666666, A
454827, 1263.4083333333333, N
455160, 1264.3333333333333, N
455479, 1265.2194444444444, N
455758, 1265.9944444444445, A
456095, 1266.9305555555557, N
456417, 1267.825, N
456729, 1268.6916666666666, N
457040, 1269.5555555555557, N
457347, 1270.4083333333333, N
457645, 1271.236111111111, N
457947, 1272.075, N
458229, 1272.8583333333333, A
458403, 1273.3416666666667, A
458738, 1274.2722222222221, N
459078, 1275.2166666666667, N
459416, 1276.1555555555556, N
459747, 1277.075, N
460075, 1277.986111111111, N
460415, 1278.9305555555557, N
460748, 1279.8555555555556, N
461074, 1280.7611111111112, N
461394, 1281.65, N
461725, 1282.5694444444443, N
462049, 1283.4694444444444, N
462371, 1284.3638888888888, N
462700, 1285.2777777777778, N
463026, 1286.1833333333334, N
463356, 1287.1, N
463675, 1287.986111111111, N
464003, 1288.8972222222221, N
464331, 1289.8083333333334, N
464637, 1290.6583333333333, N
464958, 1291.55, N
465277, 1292.4361111111111, N
465595, 1293.3194444444443, N
465913, 1294.2027777777778, N
466227, 1295.075, N
466552, 1295.9777777777779, N
466876, 1296.8777777777777, N
467191, 1297.7527777777777, N
467509, 1298.6361111111112, N
467731, 1299.2527777777777, A
468110, 1300.3055555555557, N
468441, 1301.225, N
468777, 1302.1583333333333, N
469097, 1303.0472222222222, N
469414, 1303.9277777777777, N
469737, 1304.825, N
470053, 1305.7027777777778, N
470374, 1306.5944444444444, N
470692, 1307.4777777777779, N
471016, 1308.3777777777777, N
471345, 1309.2916666666667, N
471661, 1310.1694444444445, N
471987, 1311.075, N
472313, 1311.9805555555556, N
472647, 1312.9083333333333, N
472971, 1313.8083333333334, N
473291, 1314.6972222222223, N
473631, 1315.6416666666667, N
473959, 1316.5527777777777, N
474288, 1317.4666666666667, N
474621, 1318.3916666666667, N
474970, 1319.361111111111, N
475300, 1320.2777777777778, N
475630, 1321.1944444444443, N
475968, 1322.1333333333334, N
476297, 1323.0472222222222, N
476633, 1323.9805555555556, N
476971, 1324.9194444444445, N
477311, 1325.8638888888888, N
477646, 1326.7944444444445, N
477981, 1327.725, N
478328, 1328.6888888888889, N
478658, 1329.6055555555556, N
478981, 1330.5027777777777, N
479304, 1331.4, N
479631, 1332.3083333333334, N
479954, 1333.2055555555555, N
480279, 1334.1083333333333, N
480610, 1335.0277777777778, N
480936, 1335.9333333333334, N
481264, 1336.8444444444444, N
481597, 1337.7694444444444, N
481941, 1338.725, N
482269, 1339.6361111111112, N
482597, 1340.5472222222222, N
482935, 1341.486111111111, N
483271, 1342.4194444444445, N
483602, 1343.338888888889, N
483933, 1344.2583333333334, N
484267, 1345.1861111111111, N
484589, 1346.0805555555555, N
484915, 1346.986111111111, N
485245, 1347.9027777777778, N
485571, 1348.8083333333334, N
485901, 1349.725, N
486223, 1350.6194444444445, N
486561, 1351.5583333333334, N
486886, 1352.4611111111112, N
487214, 1353.3722222222223, N
487549, 1354.3027777777777, N
487867, 1355.1861111111111, N
488061, 1355.725, A
488416, 1356.7111111111112, N
488741, 1357.6138888888888, N
489056, 1358.4888888888888, N
489362, 1359.338888888889, N
489694, 1360.2611111111112, N
490026, 1361.1833333333334, N
490343, 1362.0638888888889, N
490665, 1362.9583333333333, N
490992, 1363.8666666666666, N
491316, 1364.7666666666667, N
491633, 1365.6472222222221, N
491958, 1366.55, N
492287, 1367.463888888889, N
492611, 1368.3638888888888, N
492932, 1369.2555555555555, N
493256, 1370.1555555555556, N
493583, 1371.0638888888889, N
493905, 1371.9583333333333, N
494238, 1372.8833333333334, N
494566, 1373.7944444444445, N
494885, 1374.6805555555557, N
495213, 1375.5916666666667, N
495538, 1376.4944444444445, N
495861, 1377.3916666666667, N
496177, 1378.2694444444444, N
496497, 1379.1583333333333, N
496824, 1380.0666666666666, N
497146, 1380.9611111111112, N
497463, 1381.8416666666667, N
497787, 1382.7416666666666, N
498116, 1383.6555555555556, N
498437, 1384.5472222222222, N
498752, 1385.4222222222222, N
499078, 1386.3277777777778, N
499397, 1387.213888888889, N
499711, 1388.0861111111112, N
500025, 1388.9583333333333, N
500339, 1389.8305555555555, N
500640, 1390.6666666666667, N
500941, 1391.5027777777777, N
501242, 1392.338888888889, N
501546, 1393.1833333333334, N
501851, 1394.0305555555556, N
502161, 1394.8916666666667, N
502475, 1395.763888888889, N
502775, 1396.5972222222222, N
503116, 1397.5444444444445, N
503432, 1398.4222222222222, N
503764, 1399.3444444444444, N
504086, 1400.2388888888888, N
504398, 1401.1055555555556, N
504721, 1402.0027777777777, N
505043, 1402.8972222222221, N
505363, 1403.786111111111, N
505681, 1404.6694444444445, N
506007, 1405.575, N
506335, 1406.486111111111, N
506656, 1407.3777777777777, N
506976, 1408.2666666666667, N
507295, 1409.1527777777778, N
507610, 1410.0277777777778, N
507912, 1410.8666666666666, N
508220, 1411.7222222222222, N
508535, 1412.5972222222222, N
508842, 1413.45, N
509148, 1414.3, N
509456, 1415.1555555555556, N
509776, 1416.0444444444445, N
510094, 1416.9277777777777, N
510404, 1417.7888888888888, N
510732, 1418.7, N
511064, 1419.6222222222223, N
511257, 1420.1583333333333, A
511420, 1420.611111111111, A
511722, 1421.45, N
512127, 1422.575, N
512478, 1423.55, N
512809, 1424.4694444444444, N
513148, 1425.411111111111, N
513479, 1426.3305555555555, N
513803, 1427.2305555555556, N
514126, 1428.1277777777777, N
514450, 1429.0277777777778, N
514767, 1429.9083333333333, N
515085, 1430.7916666666667, N
515423, 1431.7305555555556, N
515742, 1432.6166666666666, N
516057, 1433.4916666666666, N
516384, 1434.4, N
516714, 1435.3166666666666, N
517033, 1436.2027777777778, N
517346, 1437.0722222222223, N
517672, 1437.9777777777779, N
517985, 1438.8472222222222, N
518291, 1439.6972222222223, N
518481, 1440.225, A
518829, 1441.1916666666666, N
518935, 1441.486111111111, ~
519146, 1442.0722222222223, N
519447, 1442.9083333333333, N
519744, 1443.7333333333333, N
520053, 1444.5916666666667, N
520167, 1444.9083333333333, ~
520353, 1445.425, N
520644, 1446.2333333333333, N
520943, 1447.0638888888889, N
521252, 1447.9222222222222, N
521562, 1448.7833333333333, N
521864, 1449.6222222222223, N
522173, 1450.4805555555556, N
522481, 1451.3361111111112, N
522785, 1452.1805555555557, N
523090, 1453.0277777777778, N
523396, 1453.8777777777777, N
523699, 1454.7194444444444, N
523995, 1455.5416666666667, N
524288, 1456.3555555555556, N
524596, 1457.2111111111112, N
524894, 1458.0388888888888, N
525184, 1458.8444444444444, N
525483, 1459.675, N
525782, 1460.5055555555555, N
526095, 1461.375, N
526405, 1462.236111111111, N
526716, 1463.1, N
527040, 1464.0, N
527354, 1464.8722222222223, N
527666, 1465.7388888888888, N
527984, 1466.6222222222223, N
528309, 1467.525, N
528621, 1468.3916666666667, N
528934, 1469.2611111111112, N
529258, 1470.161111111111, N
529573, 1471.036111111111, N
529882, 1471.8944444444444, N
530192, 1472.7555555555555, N
530509, 1473.6361111111112, N
530828, 1474.5222222222221, N
531140, 1475.388888888889, N
531454, 1476.2611111111112, N
531768, 1477.1333333333334, N
532072, 1477.9777777777779, N
532377, 1478.825, N
532678, 1479.661111111111, N
532994, 1480.5388888888888, N
533298, 1481.3833333333334, N
533591, 1482.1972222222223, N
533899, 1483.0527777777777, N
534206, 1483.9055555555556, N
534507, 1484.7416666666666, N
534815, 1485.5972222222222, N
535041, 1486.225, A
535409, 1487.2472222222223, N
535723, 1488.1194444444445, N
536029, 1488.9694444444444, N
536346, 1489.85, N
536657, 1490.713888888889, N
536962, 1491.5611111111111, N
537271, 1492.4194444444445, N
537594, 1493.3166666666666, N
537908, 1494.1888888888889, N
538222, 1495.0611111111111, N
538544, 1495.9555555555555, N
538860, 1496.8333333333333, N
539172, 1497.7, N
539490, 1498.5833333333333, N
539811, 1499.475, N
540129, 1500.3583333333333, N
540441, 1501.225, N
540762, 1502.1166666666666, N
541088, 1503.0222222222221, N
541400, 1503.888888888889, N
541723, 1504.786111111111, N
542045, 1505.6805555555557, N
542369, 1506.5805555555555, N
542685, 1507.4583333333333, N
542996, 1508.3222222222223, N
543328, 1509.2444444444445, N
543644, 1510.1222222222223, N
543945, 1510.9583333333333, N
544253, 1511.8138888888889, N
544569, 1512.6916666666666, N
544878, 1513.55, N
545186, 1514.4055555555556, N
545505, 1515.2916666666667, N
545824, 1516.1777777777777, N
546137, 1517.0472222222222, N
546451, 1517.9194444444445, N
546766, 1518.7944444444445, N
547086, 1519.6833333333334, N
547396, 1520.5444444444445, N
547704, 1521.4, N
548019, 1522.275, N
548325, 1523.125, N
548633, 1523.9805555555556, N
548945, 1524.8472222222222, N
549264, 1525.7333333333333, N
549573, 1526.5916666666667, N
549881, 1527.4472222222223, N
550204, 1528.3444444444444, N
550521, 1529.225, N
550829, 1530.0805555555555, N
551146, 1530.9611111111112, N
551465, 1531.8472222222222, N
551781, 1532.725, N
552090, 1533.5833333333333, N
552405, 1534.4583333333333, N
552721, 1535.3361111111112, N
553025, 1536.1805555555557, N
553326, 1537.0166666666667, N
553626, 1537.85, N
553929, 1538.6916666666666, N
554218, 1539.4944444444445, N
554405, 1540.013888888889, A
554751, 1540.975, N
555047, 1541.7972222222222, N
555343, 1542.6194444444445, N
555527, 1543.1305555555555, A
555875, 1544.0972222222222, N
556191, 1544.975, N
556500, 1545.8333333333333, N
556803, 1546.675, N
557124, 1547.5666666666666, N
557442, 1548.45, N
557746, 1549.2944444444445, N
557974, 1549.9277777777777, A
558152, 1550.4222222222222, A
558522, 1551.45, N
558866, 1552.4055555555556, N
559186, 1553.2944444444445, N
559520, 1554.2222222222222, N
559846, 1555.1277777777777, N
560160, 1556.0, N
560472, 1556.8666666666666, N
560783, 1557.7305555555556, N
561086, 1558.5722222222223, N
561387, 1559.4083333333333, N
561698, 1560.2722222222221, N
562007, 1561.1305555555555, N
562320, 1562.0, N
562633, 1562.8694444444445, N
562943, 1563.7305555555556, N
563259, 1564.6083333333333, N
563573, 1565.4805555555556, N
563886, 1566.35, N
564206, 1567.2388888888888, N
564513, 1568.0916666666667, N
564825, 1568.9583333333333, N
565136, 1569.8222222222223, N
565449, 1570.6916666666666, N
565760, 1571.5555555555557, N
566067, 1572.4083333333333, N
566386, 1573.2944444444445, N
566698, 1574.161111111111, N
567005, 1575.013888888889, N
567323, 1575.8972222222221, N
567641, 1576.7805555555556, N
567960, 1577.6666666666667, N
568271, 1578.5305555555556, N
568581, 1579.3916666666667, N
568901, 1580.2805555555556, N
569217, 1581.1583333333333, N
569523, 1582.0083333333334, N
569834, 1582.8722222222223, N
570160, 1583.7777777777778, N
570474, 1584.65, N
570785, 1585.513888888889, N
571114, 1586.4277777777777, N
571437, 1587.325, N
571754, 1588.2055555555555, N
572075, 1589.0972222222222, N
572391, 1589.975, N
572711, 1590.8638888888888, N
573025, 1591.736111111111, N
573346, 1592.6277777777777, N
573666, 1593.5166666666667, N
573978, 1594.3833333333334, N
574296, 1595.2666666666667, N
574611, 1596.1416666666667, N
574933, 1597.036111111111, N
575244, 1597.9, N
575548, 1598.7444444444445, N
575866, 1599.6277777777777, N
576178, 1600.4944444444445, N
576489, 1601.3583333333333, N
576801, 1602.225, N
577118, 1603.1055555555556, N
577427, 1603.963888888889, N
577734, 1604.8166666666666, N
578056, 1605.7111111111112, N
578369, 1606.5805555555555, N
578675, 1607.4305555555557, N
578981, 1608.2805555555556, N
579291, 1609.1416666666667, N
579610, 1610.0277777777778, N
579915, 1610.875, N
580231, 1611.7527777777777, N
580558, 1612.661111111111, N
580871, 1613.5305555555556, N
581191, 1614.4194444444445, N
581512, 1615.3111111111111, N
581830, 1616.1944444444443, N
582147, 1617.075, N
582459, 1617.9416666666666, N
582781, 1618.8361111111112, N
583102, 1619.7277777777779, N
583419, 1620.6083333333333, N
583738, 1621.4944444444445, N
584066, 1622.4055555555556, N
584387, 1623.2972222222222, N
584704, 1624.1777777777777, N
585032, 1625.088888888889, N
585347, 1625.963888888889, N
585656, 1626.8222222222223, N
585975, 1627.7083333333333, N
586295, 1628.5972222222222, N
586608, 1629.4666666666667, N
586917, 1630.325, N
587240, 1631.2222222222222, N
587557, 1632.1027777777779, N
587867, 1632.963888888889, N
588182, 1633.838888888889, N
588495, 1634.7083333333333, N
588811, 1635.5861111111112, N
589125, 1636.4583333333333, N
589440, 1637.3333333333333, N
589758, 1638.2166666666667, N
590064, 1639.0666666666666, N
590376, 1639.9333333333334, N
590687, 1640.7972222222222, N
591005, 1641.6805555555557, N
591315, 1642.5416666666667, N
591623, 1643.3972222222221, N
591939, 1644.275, N
592251, 1645.1416666666667, N
592556, 1645.9888888888888, N
592858, 1646.8277777777778, N
593168, 1647.6888888888889, N
593489, 1648.5805555555555, N
593789, 1649.4138888888888, N
594103, 1650.286111111111, N
594417, 1651.1583333333333, N
594720, 1652.0, N
595035, 1652.875, N
595341, 1653.725, N
595651, 1654.5861111111112, N
595961, 1655.4472222222223, N
596268, 1656.3, N
596586, 1657.1833333333334, N
596896, 1658.0444444444445, N
597210, 1658.9166666666667, N
597533, 1659.8138888888889, N
597851, 1660.6972222222223, N
598168, 1661.5777777777778, N
598488, 1662.4666666666667, N
598809, 1663.3583333333333, N
599131, 1664.2527777777777, N
599450, 1665.138888888889, N
599767, 1666.0194444444444, N
600087, 1666.9083333333333, N
600406, 1667.7944444444445, N
600678, 1668.55, A
601033, 1669.536111111111, N
601365, 1670.4583333333333, N
601683, 1671.3416666666667, N
601997, 1672.213888888889, N
602312, 1673.088888888889, N
602634, 1673.9833333333333, N
602946, 1674.85, N
603250, 1675.6944444444443, N
603579, 1676.6083333333333, N
603901, 1677.5027777777777, N
604214, 1678.3722222222223, N
604532, 1679.2555555555555, N
604853, 1680.1472222222221, N
605185, 1681.0694444444443, N
605499, 1681.9416666666666, N
605817, 1682.825, N
606145, 1683.736111111111, N
606468, 1684.6333333333334, N
606784, 1685.5111111111112, N
607102, 1686.3944444444444, N
607428, 1687.3, N
607746, 1688.1833333333334, N
608062, 1689.0611111111111, N
608380, 1689.9444444444443, N
608687, 1690.7972222222222, N
608997, 1691.6583333333333, N
609306, 1692.5166666666667, N
609628, 1693.411111111111, N
609943, 1694.286111111111, N
610255, 1695.1527777777778, N
610581, 1696.0583333333334, N
610895, 1696.9305555555557, N
611080, 1697.4444444444443, A
611448, 1698.4666666666667, N
611767, 1699.3527777777779, N
612082, 1700.2277777777779, N
612394, 1701.0944444444444, N
612710, 1701.9722222222222, N
613025, 1702.8472222222222, N
613331, 1703.6972222222223, N
613638, 1704.55, N
613955, 1705.4305555555557, N
614275, 1706.3194444444443, N
614586, 1707.1833333333334, N
614903, 1708.0638888888889, N
615235, 1708.986111111111, N
615550, 1709.861111111111, N
615860, 1710.7222222222222, N
616169, 1711.5805555555555, N
616491, 1712.475, N
616807, 1713.3527777777779, N
617116, 1714.2111111111112, N
617438, 1715.1055555555556, N
617760, 1716.0, N
618079, 1716.8861111111112, N
618395, 1717.763888888889, N
618711, 1718.6416666666667, N
619036, 1719.5444444444445, N
619357, 1720.4361111111111, N
619686, 1721.35, N
620015, 1722.263888888889, N
620330, 1723.138888888889, N
620654, 1724.0388888888888, N
620972, 1724.9222222222222, N
621285, 1725.7916666666667, N
621596, 1726.6555555555556, N
621913, 1727.536111111111, N
622229, 1728.4138888888888, N
622543, 1729.286111111111, N
622862, 1730.1722222222222, N
623184, 1731.0666666666666, N
623516, 1731.9888888888888, N
623838, 1732.8833333333334, N
624152, 1733.7555555555555, N
624477, 1734.6583333333333, N
624793, 1735.536111111111, N
625104, 1736.4, N
625420, 1737.2777777777778, N
625743, 1738.175, N
626057, 1739.0472222222222, N
626365, 1739.9027777777778, N
626686, 1740.7944444444445, N
627001, 1741.6694444444445, N
627304, 1742.5111111111112, N
627616, 1743.3777777777777, N
627926, 1744.2388888888888, N
628244, 1745.1222222222223, N
628559, 1745.9972222222223, N
628868, 1746.8555555555556, N
629186, 1747.7388888888888, N
629500, 1748.611111111111, N
629815, 1749.486111111111, N
630131, 1750.3638888888888, N
630454, 1751.2611111111112, N
630773, 1752.1472222222221, N
631090, 1753.0277777777778, N
631423, 1753.9527777777778, N
631739, 1754.8305555555555, N
632054, 1755.7055555555555, N
632370, 1756.5833333333333, N
632683, 1757.4527777777778, N
633000, 1758.3333333333333, N
633305, 1759.1805555555557, N
633614, 1760.0388888888888, N
633923, 1760.8972222222221, N
634224, 1761.7333333333333, N
634533, 1762.5916666666667, N
634841, 1763.4472222222223, N
635158, 1764.3277777777778, N
635470, 1765.1944444444443, N
635780, 1766.0555555555557, N
636105, 1766.9583333333333, N
636423, 1767.8416666666667, N
636612, 1768.3666666666666, A
636985, 1769.4027777777778, N
637316, 1770.3222222222223, N
637642, 1771.2277777777779, N
637964, 1772.1222222222223, N
638297, 1773.0472222222222, N
638617, 1773.9361111111111, N
638926, 1774.7944444444445, N
639245, 1775.6805555555557, N
639555, 1776.5416666666667, N
639878, 1777.4388888888889, N
640188, 1778.3, N
640496, 1779.1555555555556, N
640816, 1780.0444444444445, N
641132, 1780.9222222222222, N
641445, 1781.7916666666667, N
641758, 1782.661111111111, N
642082, 1783.5611111111111, N
642403, 1784.4527777777778, N
642717, 1785.325, N
643041, 1786.225, N
643226, 1786.7388888888888, A
643587, 1787.7416666666666, N
643915, 1788.6527777777778, N
644237, 1789.5472222222222, N
644564, 1790.4555555555555, N
644888, 1791.3555555555556, N
645212, 1792.2555555555555, N
645538, 1793.161111111111, N
645738, 1793.7166666666667, A
646106, 1794.7388888888888, N
646446, 1795.6833333333334, N
646779, 1796.6083333333333, N
647091, 1797.475, N
647404, 1798.3444444444444, N
647724, 1799.2333333333333, N
648034, 1800.0944444444444, N
648339, 1800.9416666666666, N
648649, 1801.8027777777777, N
648966, 1802.6833333333334, N
649277, 1803.5472222222222, N
649584, 1804.4, N
649904, 1805.2888888888888, N
