28, 0.07777777777777778, +
220, 0.6111111111111112, N
442, 1.2277777777777779, N
603, 1.675, V
924, 2.566666666666667, N
1241, 3.4472222222222224, N
1430, 3.9722222222222223, V
1804, 5.011111111111111, N
2064, 5.733333333333333, N
2356, 6.544444444444444, N
2520, 7.0, V
2825, 7.847222222222222, N
3064, 8.511111111111111, N
3525, 9.791666666666666, N
3798, 10.55, N
4128, 11.466666666666667, N
4489, 12.469444444444445, N
4838, 13.438888888888888, N
5092, 14.144444444444444, N
5355, 14.875, N
5537, 15.380555555555556, V
5848, 16.244444444444444, N
6099, 16.941666666666666, N
6351, 17.641666666666666, N
6512, 18.08888888888889, V
6879, 19.108333333333334, N
7215, 20.041666666666668, N
7512, 20.866666666666667, N
7689, 21.358333333333334, V
8071, 22.419444444444444, N
8301, 23.058333333333334, N
8546, 23.738888888888887, N
8816, 24.488888888888887, N
9246, 25.683333333333334, N
9514, 26.427777777777777, N
9785, 27.180555555555557, N
10103, 28.06388888888889, N
10374, 28.816666666666666, N
10641, 29.558333333333334, N
10816, 30.044444444444444, V
11125, 30.90277777777778, N
11383, 31.619444444444444, N
11679, 32.44166666666667, N
11852, 32.922222222222224, V
12147, 33.74166666666667, N
12390, 34.416666666666664, N
12742, 35.394444444444446, N
13026, 36.18333333333333, N
13205, 36.68055555555556, V
13496, 37.48888888888889, N
13737, 38.15833333333333, N
13998, 38.88333333333333, N
14244, 39.56666666666667, N
14542, 40.394444444444446, N
14802, 41.11666666666667, N
14967, 41.575, V
15334, 42.59444444444444, N
15566, 43.23888888888889, N
15834, 43.983333333333334, N
16085, 44.68055555555556, N
16538, 45.93888888888889, N
16926, 47.016666666666666, N
17197, 47.769444444444446, N
17428, 48.41111111111111, N
17682, 49.11666666666667, N
17910, 49.75, N
18205, 50.56944444444444, N
18464, 51.28888888888889, N
18758, 52.105555555555554, N
19071, 52.975, N
19266, 53.516666666666666, V
19638, 54.55, N
19868, 55.18888888888889, N
20147, 55.96388888888889, N
20294, 56.37222222222222, V
20652, 57.36666666666667, N
20911, 58.08611111111111, N
21242, 59.00555555555555, N
21489, 59.69166666666667, N
21756, 60.43333333333333, N
21979, 61.05277777777778, N
22236, 61.766666666666666, N
22399, 62.21944444444444, V
22730, 63.138888888888886, N
22992, 63.86666666666667, N
23327, 64.79722222222222, N
23765, 66.01388888888889, N
24104, 66.95555555555555, N
24360, 67.66666666666667, N
24601, 68.33611111111111, N
24879, 69.10833333333333, N
25197, 69.99166666666666, N
25381, 70.50277777777778, V
25700, 71.38888888888889, N
25948, 72.07777777777778, N
26181, 72.725, N
26342, 73.17222222222222, V
26620, 73.94444444444444, N
26868, 74.63333333333334, N
27145, 75.40277777777777, N
27311, 75.8638888888889, V
27691, 76.91944444444445, N
27957, 77.65833333333333, N
28185, 78.29166666666667, N
28413, 78.925, N
28567, 79.35277777777777, V
29058, 80.71666666666667, N
29323, 81.45277777777778, N
29630, 82.30555555555556, N
29948, 83.18888888888888, N
30121, 83.66944444444445, V
30427, 84.51944444444445, N
30660, 85.16666666666667, N
30878, 85.77222222222223, N
31123, 86.45277777777778, N
31547, 87.63055555555556, N
31793, 88.31388888888888, N
32160, 89.33333333333333, N
32435, 90.09722222222223, N
32613, 90.59166666666667, V
32991, 91.64166666666667, N
33260, 92.38888888888889, N
33431, 92.8638888888889, V
33748, 93.74444444444444, N
34011, 94.475, N
34277, 95.21388888888889, N
34519, 95.8861111111111, N
34677, 96.325, V
34968, 97.13333333333334, N
35227, 97.85277777777777, N
35670, 99.08333333333333, N
35929, 99.80277777777778, N
36200, 100.55555555555556, N
36391, 101.08611111111111, V
36768, 102.13333333333334, N
37000, 102.77777777777777, N
37242, 103.45, N
37403, 103.89722222222223, V
37849, 105.1361111111111, N
38099, 105.83055555555555, N
38422, 106.72777777777777, N
38691, 107.475, N
38941, 108.16944444444445, N
39244, 109.0111111111111, N
39559, 109.8861111111111, N
39718, 110.32777777777778, V
40016, 111.15555555555555, N
40263, 111.84166666666667, N
40506, 112.51666666666667, N
40683, 113.00833333333334, V
41018, 113.93888888888888, N
41342, 114.83888888888889, N
41566, 115.46111111111111, N
41780, 116.05555555555556, N
41951, 116.53055555555555, V
42333, 117.59166666666667, N
42653, 118.48055555555555, N
42827, 118.96388888888889, V
43127, 119.79722222222222, N
43363, 120.45277777777778, N
43589, 121.08055555555555, N
43806, 121.68333333333334, N
44042, 122.33888888888889, N
44336, 123.15555555555555, N
44509, 123.6361111111111, V
44840, 124.55555555555556, N
45112, 125.31111111111112, N
45295, 125.81944444444444, V
45617, 126.71388888888889, N
45863, 127.39722222222223, N
46152, 128.2, N
46315, 128.65277777777777, V
46634, 129.5388888888889, N
46905, 130.29166666666666, N
47146, 130.9611111111111, N
47396, 131.65555555555557, N
47560, 132.11111111111111, V
47866, 132.9611111111111, N
48132, 133.7, N
48304, 134.17777777777778, V
48568, 134.9111111111111, N
48847, 135.6861111111111, N
49155, 136.54166666666666, N
49335, 137.04166666666666, V
49625, 137.84722222222223, N
49847, 138.4638888888889, N
50067, 139.075, N
50228, 139.5222222222222, V
50566, 140.4611111111111, N
51056, 141.82222222222222, N
51377, 142.7138888888889, N
51545, 143.18055555555554, V
51842, 144.00555555555556, N
52133, 144.8138888888889, N
52302, 145.28333333333333, V
52598, 146.10555555555555, N
52870, 146.86111111111111, N
53112, 147.53333333333333, N
53458, 148.49444444444444, N
53729, 149.24722222222223, N
53981, 149.94722222222222, N
54253, 150.70277777777778, N
54619, 151.71944444444443, N
54866, 152.40555555555557, N
55103, 153.0638888888889, N
55277, 153.54722222222222, V
55621, 154.50277777777777, N
55868, 155.1888888888889, N
56143, 155.95277777777778, N
56356, 156.54444444444445, N
56648, 157.35555555555555, N
56893, 158.0361111111111, N
57350, 159.30555555555554, N
57610, 160.02777777777777, N
57841, 160.66944444444445, N
58019, 161.1638888888889, V
58342, 162.0611111111111, N
58571, 162.69722222222222, N
58809, 163.35833333333332, N
58969, 163.80277777777778, V
59261, 164.61388888888888, N
59495, 165.26388888888889, N
59775, 166.04166666666666, N
60037, 166.76944444444445, N
60456, 167.93333333333334, N
60691, 168.5861111111111, N
60938, 169.2722222222222, N
61096, 169.7111111111111, V
61411, 170.5861111111111, V
61723, 171.45277777777778, N
61896, 171.93333333333334, V
62351, 173.19722222222222, N
62637, 173.99166666666667, N
62801, 174.44722222222222, V
63125, 175.34722222222223, N
63363, 176.00833333333333, N
63592, 176.64444444444445, N
63841, 177.3361111111111, N
64012, 177.8111111111111, V
64300, 178.61111111111111, N
64538, 179.2722222222222, N
64768, 179.9111111111111, N
64925, 180.34722222222223, V
65242, 181.2277777777778, N
65468, 181.85555555555555, N
65720, 182.55555555555554, N
65890, 183.02777777777777, V
66287, 184.13055555555556, N
66742, 185.39444444444445, N
67044, 186.23333333333332, N
67207, 186.6861111111111, V
67512, 187.53333333333333, N
67760, 188.22222222222223, N
68036, 188.98888888888888, N
68212, 189.4777777777778, V
68504, 190.2888888888889, N
68983, 191.61944444444444, N
69314, 192.5388888888889, N
69557, 193.2138888888889, N
70002, 194.45, N
70324, 195.34444444444443, N
70559, 195.99722222222223, N
70893, 196.925, N
71191, 197.75277777777777, N
71358, 198.21666666666667, V
71696, 199.15555555555557, N
72012, 200.03333333333333, N
72292, 200.8111111111111, N
72577, 201.6027777777778, N
72757, 202.1027777777778, V
73108, 203.07777777777778, N
73343, 203.73055555555555, N
73594, 204.42777777777778, N
73763, 204.8972222222222, V
74090, 205.80555555555554, N
74610, 207.25, N
74893, 208.0361111111111, N
75063, 208.50833333333333, V
75358, 209.32777777777778, N
75599, 209.99722222222223, N
75824, 210.62222222222223, N
76048, 211.24444444444444, N
76303, 211.95277777777778, N
76561, 212.66944444444445, N
76759, 213.21944444444443, V
77117, 214.2138888888889, N
77396, 214.98888888888888, N
77676, 215.76666666666668, N
77849, 216.24722222222223, V
78108, 216.96666666666667, N
78321, 217.55833333333334, N
78560, 218.22222222222223, N
78734, 218.70555555555555, V
79056, 219.6, N
79305, 220.29166666666666, N
79674, 221.31666666666666, N
79941, 222.05833333333334, N
80116, 222.54444444444445, V
80433, 223.425, N
80653, 224.0361111111111, N
80882, 224.67222222222222, N
81196, 225.54444444444445, N
81370, 226.02777777777777, V
81716, 226.98888888888888, N
82046, 227.90555555555557, N
82209, 228.35833333333332, V
82530, 229.25, N
82765, 229.90277777777777, N
82986, 230.51666666666668, N
83241, 231.225, N
83412, 231.7, V
83743, 232.61944444444444, N
83965, 233.23611111111111, N
84264, 234.06666666666666, N
84562, 234.89444444444445, N
84717, 235.325, V
85052, 236.25555555555556, N
85298, 236.9388888888889, N
85551, 237.64166666666668, N
85730, 238.13888888888889, V
86034, 238.98333333333332, N
86280, 239.66666666666666, N
86509, 240.30277777777778, N
86671, 240.75277777777777, V
86964, 241.56666666666666, N
87219, 242.275, N
87569, 243.24722222222223, N
87749, 243.74722222222223, V
88108, 244.74444444444444, N
88337, 245.38055555555556, N
88596, 246.1, N
88758, 246.55, V
89169, 247.69166666666666, N
89342, 248.17222222222222, V
89668, 249.07777777777778, N
89923, 249.7861111111111, N
90340, 250.94444444444446, N
90587, 251.63055555555556, N
90818, 252.2722222222222, N
91068, 252.96666666666667, N
91290, 253.58333333333334, N
91501, 254.16944444444445, N
91725, 254.79166666666666, N
91965, 255.45833333333334, N
92249, 256.2472222222222, N
92511, 256.975, N
92678, 257.43888888888887, V
92975, 258.2638888888889, N
93193, 258.86944444444447, N
93414, 259.48333333333335, N
93591, 259.975, V
93983, 261.06388888888887, N
94235, 261.7638888888889, N
94479, 262.44166666666666, N
94646, 262.90555555555557, V
94974, 263.81666666666666, N
95203, 264.4527777777778, N
95455, 265.15277777777777, N
95722, 265.89444444444445, N
95958, 266.55, N
96189, 267.19166666666666, N
96364, 267.6777777777778, V
96714, 268.65, N
96946, 269.2944444444444, N
97218, 270.05, N
97505, 270.84722222222223, N
97667, 271.2972222222222, V
97997, 272.2138888888889, N
98230, 272.8611111111111, N
98445, 273.4583333333333, N
98684, 274.1222222222222, N
98871, 274.64166666666665, V
99167, 275.4638888888889, N
99371, 276.03055555555557, N
99660, 276.8333333333333, N
99908, 277.52222222222224, N
100128, 278.1333333333333, N
100302, 278.6166666666667, V
100602, 279.45, N
100888, 280.24444444444447, N
101062, 280.72777777777776, V
101422, 281.72777777777776, N
101666, 282.40555555555557, N
101898, 283.05, N
102113, 283.64722222222224, N
102291, 284.14166666666665, V
102592, 284.97777777777776, N
102867, 285.7416666666667, N
103052, 286.25555555555553, V
103353, 287.09166666666664, N
103612, 287.81111111111113, N
103890, 288.5833333333333, N
103972, 288.81111111111113, +
104054, 289.0388888888889, V
104369, 289.9138888888889, N
104650, 290.69444444444446, N
104817, 291.15833333333336, V
105181, 292.1694444444444, N
105508, 293.0777777777778, N
105678, 293.55, V
105889, 294.1361111111111, +
106100, 294.72222222222223, N
106337, 295.38055555555553, N
106547, 295.9638888888889, N
106770, 296.5833333333333, N
106944, 297.06666666666666, V
107246, 297.90555555555557, N
107490, 298.5833333333333, N
107727, 299.2416666666667, N
107891, 299.6972222222222, V
108179, 300.4972222222222, N
108485, 301.34722222222223, N
108649, 301.8027777777778, V
108941, 302.6138888888889, N
109573, 304.36944444444447, N
109806, 305.01666666666665, N
110054, 305.7055555555556, N
110216, 306.15555555555557, V
110516, 306.9888888888889, N
110727, 307.575, N
111084, 308.56666666666666, N
111345, 309.2916666666667, N
111637, 310.10277777777776, N
111810, 310.5833333333333, V
112184, 311.6222222222222, N
112460, 312.3888888888889, N
112617, 312.825, V
112874, 313.5388888888889, N
113109, 314.19166666666666, N
113376, 314.93333333333334, N
113560, 315.44444444444446, V
113852, 316.25555555555553, N
114093, 316.925, N
114341, 317.6138888888889, N
114621, 318.39166666666665, N
114986, 319.40555555555557, N
115209, 320.025, N
115446, 320.68333333333334, N
115705, 321.40277777777777, N
115929, 322.025, N
116157, 322.65833333333336, N
116338, 323.1611111111111, V
116610, 323.9166666666667, N
116833, 324.5361111111111, N
117143, 325.39722222222224, N
117641, 326.78055555555557, N
117945, 327.625, N
118119, 328.10833333333335, V
118469, 329.0805555555556, N
118706, 329.7388888888889, N
118935, 330.375, N
119238, 331.21666666666664, N
119469, 331.85833333333335, N
119700, 332.5, N
119866, 332.9611111111111, V
120222, 333.95, N
120472, 334.64444444444445, N
120769, 335.46944444444443, N
121088, 336.35555555555555, N
121242, 336.78333333333336, V
121545, 337.625, N
121801, 338.3361111111111, N
122046, 339.01666666666665, N
122292, 339.7, N
122569, 340.46944444444443, N
122966, 341.5722222222222, N
123403, 342.7861111111111, N
123633, 343.425, N
123881, 344.1138888888889, N
124345, 345.40277777777777, N
124586, 346.0722222222222, N
124902, 346.95, N
125321, 348.1138888888889, N
125627, 348.9638888888889, N
125911, 349.7527777777778, N
126084, 350.23333333333335, V
126433, 351.2027777777778, N
126659, 351.8305555555556, N
126879, 352.44166666666666, N
127118, 353.10555555555555, N
127291, 353.5861111111111, V
127619, 354.4972222222222, N
128042, 355.6722222222222, N
128321, 356.4472222222222, N
128494, 356.9277777777778, V
128865, 357.9583333333333, N
129086, 358.5722222222222, N
129312, 359.2, N
129574, 359.9277777777778, N
129810, 360.5833333333333, N
130075, 361.31944444444446, N
130306, 361.9611111111111, N
130546, 362.6277777777778, N
130734, 363.15, V
131100, 364.1666666666667, N
131367, 364.90833333333336, N
131546, 365.40555555555557, V
131874, 366.31666666666666, N
132199, 367.21944444444443, N
132415, 367.81944444444446, N
132639, 368.44166666666666, N
132887, 369.13055555555553, N
133057, 369.60277777777776, V
133362, 370.45, N
133799, 371.6638888888889, N
134027, 372.2972222222222, N
134240, 372.8888888888889, N
134402, 373.3388888888889, V
134674, 374.09444444444443, N
135127, 375.35277777777776, N
135407, 376.13055555555553, N
135682, 376.89444444444445, N
135855, 377.375, V
136186, 378.2944444444444, N
136397, 378.88055555555553, N
136624, 379.5111111111111, N
136778, 379.93888888888887, V
137076, 380.76666666666665, N
137322, 381.45, N
137571, 382.14166666666665, N
137739, 382.60833333333335, V
138070, 383.52777777777777, N
138350, 384.30555555555554, N
138514, 384.7611111111111, V
138812, 385.5888888888889, N
139035, 386.2083333333333, N
139361, 387.1138888888889, N
139585, 387.7361111111111, N
139816, 388.3777777777778, N
140036, 388.9888888888889, N
140358, 389.8833333333333, N
140593, 390.5361111111111, N
140799, 391.10833333333335, N
140975, 391.59722222222223, V
141278, 392.43888888888887, N
141619, 393.3861111111111, N
141931, 394.2527777777778, N
142113, 394.7583333333333, V
142481, 395.78055555555557, N
142710, 396.4166666666667, N
142940, 397.05555555555554, N
143162, 397.6722222222222, N
143326, 398.1277777777778, V
143619, 398.94166666666666, N
143890, 399.69444444444446, N
144131, 400.3638888888889, N
144353, 400.98055555555555, N
144440, 401.22222222222223, +
144527, 401.4638888888889, V
144809, 402.2472222222222, N
145077, 402.9916666666667, N
145247, 403.4638888888889, V
145566, 404.35, N
145850, 405.1388888888889, N
146032, 405.64444444444445, V
146218, 406.1611111111111, +
146404, 406.6777777777778, N
146631, 407.30833333333334, N
146869, 407.96944444444443, N
147098, 408.60555555555555, N
147304, 409.1777777777778, N
147582, 409.95, N
147751, 410.4194444444444, V
148089, 411.35833333333335, N
148321, 412.0027777777778, N
148552, 412.64444444444445, N
148794, 413.31666666666666, N
149019, 413.94166666666666, N
149257, 414.60277777777776, N
149426, 415.0722222222222, V
149742, 415.95, N
150002, 416.6722222222222, N
150193, 417.2027777777778, V
150524, 418.1222222222222, N
150810, 418.9166666666667, N
151105, 419.7361111111111, N
151263, 420.175, V
151599, 421.10833333333335, N
151841, 421.78055555555557, N
152159, 422.6638888888889, N
152333, 423.14722222222224, V
152694, 424.15, N
152953, 424.86944444444447, N
153135, 425.375, V
153396, 426.1, N
153649, 426.8027777777778, N
153871, 427.4194444444444, N
154095, 428.0416666666667, N
154268, 428.52222222222224, V
154591, 429.4194444444444, N
154822, 430.06111111111113, N
155110, 430.8611111111111, N
155365, 431.56944444444446, N
155582, 432.1722222222222, N
155833, 432.86944444444447, N
156137, 433.7138888888889, N
156296, 434.15555555555557, V
156670, 435.19444444444446, N
156935, 435.93055555555554, N
157186, 436.6277777777778, N
157405, 437.2361111111111, N
157588, 437.74444444444447, V
157847, 438.4638888888889, N
158055, 439.0416666666667, N
158286, 439.68333333333334, N
158619, 440.60833333333335, N
158845, 441.2361111111111, N
159101, 441.9472222222222, N
159344, 442.6222222222222, N
159589, 443.3027777777778, N
159819, 443.94166666666666, N
160046, 444.5722222222222, N
160255, 445.15277777777777, N
160474, 445.7611111111111, N
160700, 446.3888888888889, N
160878, 446.8833333333333, V
161280, 448.0, N
161540, 448.72222222222223, N
161769, 449.35833333333335, N
161954, 449.8722222222222, V
162207, 450.575, N
162424, 451.1777777777778, N
162641, 451.78055555555557, N
162826, 452.2944444444444, V
163125, 453.125, N
163361, 453.78055555555557, N
163627, 454.51944444444445, N
163923, 455.34166666666664, N
164082, 455.78333333333336, V
164428, 456.74444444444447, N
164670, 457.4166666666667, N
164843, 457.89722222222224, V
165166, 458.7944444444444, N
165449, 459.5805555555556, N
165677, 460.2138888888889, N
165918, 460.8833333333333, N
166088, 461.35555555555555, V
166446, 462.35, N
166680, 463.0, N
166929, 463.69166666666666, N
167113, 464.2027777777778, V
167446, 465.1277777777778, N
167700, 465.8333333333333, N
167931, 466.475, N
168279, 467.44166666666666, N
168517, 468.10277777777776, N
168744, 468.73333333333335, N
168909, 469.19166666666666, V
169219, 470.0527777777778, N
169438, 470.6611111111111, N
169670, 471.30555555555554, N
169841, 471.78055555555557, V
170159, 472.6638888888889, N
170425, 473.40277777777777, N
170662, 474.06111111111113, N
170936, 474.8222222222222, N
171340, 475.94444444444446, N
171675, 476.875, N
171975, 477.7083333333333, N
172152, 478.2, V
172542, 479.28333333333336, N
172792, 479.97777777777776, N
173026, 480.6277777777778, N
173260, 481.27777777777777, N
173585, 482.18055555555554, N
173885, 483.0138888888889, N
174062, 483.50555555555553, V
174439, 484.5527777777778, N
174731, 485.3638888888889, N
174903, 485.84166666666664, V
175193, 486.64722222222224, N
175422, 487.28333333333336, N
175713, 488.09166666666664, N
175965, 488.7916666666667, N
176291, 489.6972222222222, N
176538, 490.3833333333333, N
176801, 491.1138888888889, N
177034, 491.7611111111111, N
177324, 492.56666666666666, N
177725, 493.68055555555554, N
178005, 494.4583333333333, N
178201, 495.0027777777778, V
178559, 495.9972222222222, N
178814, 496.7055555555556, N
179053, 497.36944444444447, N
179358, 498.21666666666664, N
179581, 498.8361111111111, N
179828, 499.52222222222224, N
179984, 499.9555555555556, V
180299, 500.8305555555556, N
180564, 501.56666666666666, N
180831, 502.30833333333334, N
181014, 502.81666666666666, V
181353, 503.7583333333333, N
181586, 504.40555555555557, N
181844, 505.1222222222222, N
182153, 505.98055555555555, N
182317, 506.43611111111113, V
182658, 507.3833333333333, N
182956, 508.2111111111111, N
183134, 508.7055555555556, V
183496, 509.7111111111111, N
183925, 510.90277777777777, N
184166, 511.5722222222222, N
184379, 512.1638888888889, N
184637, 512.8805555555556, N
184889, 513.5805555555555, N
185135, 514.2638888888889, N
185392, 514.9777777777778, N
185561, 515.4472222222222, V
185976, 516.6, N
186237, 517.325, N
186494, 518.0388888888889, N
186671, 518.5305555555556, V
186967, 519.3527777777778, N
187270, 520.1944444444445, N
187443, 520.675, V
187826, 521.7388888888889, N
188055, 522.375, N
188257, 522.9361111111111, N
188469, 523.525, N
188644, 524.0111111111111, V
188936, 524.8222222222222, N
189176, 525.4888888888889, N
189319, 525.8861111111111, ~
189418, 526.1611111111112, N
189588, 526.6333333333333, V
189875, 527.4305555555555, N
190116, 528.1, N
190369, 528.8027777777778, N
190527, 529.2416666666667, V
190788, 529.9666666666667, N
191074, 530.7611111111111, N
191136, 530.9333333333333, ~
191258, 531.2722222222222, V
191621, 532.2805555555556, N
191869, 532.9694444444444, N
192141, 533.725, N
192304, 534.1777777777778, V
192597, 534.9916666666667, N
192844, 535.6777777777778, N
193177, 536.6027777777778, N
193430, 537.3055555555555, N
193699, 538.0527777777778, N
193885, 538.5694444444445, V
194133, 539.2583333333333, N
194381, 539.9472222222222, N
194685, 540.7916666666666, N
194942, 541.5055555555556, N
195169, 542.1361111111111, N
195393, 542.7583333333333, N
195567, 543.2416666666667, V
195871, 544.0861111111111, N
196105, 544.7361111111111, N
196348, 545.4111111111112, N
196435, 545.6527777777778, +
196522, 545.8944444444444, V
196861, 546.8361111111111, N
197127, 547.575, N
197230, 547.8611111111111, ~
197294, 548.0388888888889, V
197574, 548.8166666666667, N
197873, 549.6472222222222, N
198059, 550.1638888888889, V
198216, 550.6, +
198373, 551.0361111111112, N
198552, 551.5333333333333, ~
198610, 551.6944444444445, N
198808, 552.2444444444444, N
199011, 552.8083333333333, N
199254, 553.4833333333333, N
199445, 554.0138888888889, N
199678, 554.6611111111112, N
199858, 555.1611111111112, V
200233, 556.2027777777778, N
200483, 556.8972222222222, N
200698, 557.4944444444444, N
200867, 557.9638888888888, V
201171, 558.8083333333333, N
201444, 559.5666666666667, N
201609, 560.025, V
201975, 561.0416666666666, N
202256, 561.8222222222222, N
202503, 562.5083333333333, N
202780, 563.2777777777778, N
202952, 563.7555555555556, V
203225, 564.5138888888889, N
203441, 565.1138888888889, N
203646, 565.6833333333333, N
203828, 566.1888888888889, V
204091, 566.9194444444445, N
204429, 567.8583333333333, N
204712, 568.6444444444444, N
204939, 569.275, N
205157, 569.8805555555556, N
205325, 570.3472222222222, V
205610, 571.1388888888889, N
205879, 571.8861111111111, N
206043, 572.3416666666667, V
206358, 573.2166666666667, N
206652, 574.0333333333333, N
206900, 574.7222222222222, N
207088, 575.2444444444444, V
207367, 576.0194444444444, N
207588, 576.6333333333333, N
207809, 577.2472222222223, N
207980, 577.7222222222222, V
208378, 578.8277777777778, N
208600, 579.4444444444445, N
208875, 580.2083333333334, N
209045, 580.6805555555555, V
209340, 581.5, N
209599, 582.2194444444444, N
209770, 582.6944444444445, V
210021, 583.3916666666667, N
210275, 584.0972222222222, N
210506, 584.7388888888889, N
210775, 585.4861111111111, N
211060, 586.2777777777778, N
211369, 587.1361111111111, N
211533, 587.5916666666667, V
211851, 588.475, N
212094, 589.15, N
212338, 589.8277777777778, N
212519, 590.3305555555555, V
212768, 591.0222222222222, N
212997, 591.6583333333333, N
213253, 592.3694444444444, N
213428, 592.8555555555556, V
213815, 593.9305555555555, N
214080, 594.6666666666666, N
214245, 595.125, V
214597, 596.1027777777778, N
214825, 596.7361111111111, N
215161, 597.6694444444445, N
215407, 598.3527777777778, N
215650, 599.0277777777778, N
215881, 599.6694444444445, N
216049, 600.1361111111111, V
216316, 600.8777777777777, N
216721, 602.0027777777777, N
216993, 602.7583333333333, N
217167, 603.2416666666667, V
217529, 604.2472222222223, N
217796, 604.9888888888889, N
218049, 605.6916666666667, N
218224, 606.1777777777778, V
218495, 606.9305555555555, N
218721, 607.5583333333333, N
218955, 608.2083333333334, N
219206, 608.9055555555556, N
219425, 609.5138888888889, N
219708, 610.3, N
219881, 610.7805555555556, V
220226, 611.7388888888889, N
220583, 612.7305555555556, N
220830, 613.4166666666666, N
221088, 614.1333333333333, N
221268, 614.6333333333333, V
221627, 615.6305555555556, N
221883, 616.3416666666667, N
222129, 617.025, N
222351, 617.6416666666667, N
222524, 618.1222222222223, V
222815, 618.9305555555555, N
223034, 619.5388888888889, N
223257, 620.1583333333333, N
223434, 620.65, V
223705, 621.4027777777778, N
224050, 622.3611111111111, N
224324, 623.1222222222223, N
224563, 623.7861111111112, N
224789, 624.4138888888889, N
224947, 624.8527777777778, V
225239, 625.6638888888889, N
225538, 626.4944444444444, N
225817, 627.2694444444444, N
226049, 627.9138888888889, N
226334, 628.7055555555555, N
226567, 629.3527777777778, N
226864, 630.1777777777778, N
227313, 631.425, N
227688, 632.4666666666667, N
227954, 633.2055555555555, N
228205, 633.9027777777778, N
228446, 634.5722222222222, N
228727, 635.3527777777778, N
228931, 635.9194444444445, N
229149, 636.525, N
229403, 637.2305555555556, N
229607, 637.7972222222222, N
229908, 638.6333333333333, N
230175, 639.375, N
230401, 640.0027777777777, N
230699, 640.8305555555555, N
230925, 641.4583333333334, N
231088, 641.9111111111112, V
231432, 642.8666666666667, N
231647, 643.4638888888888, N
231822, 643.95, V
232117, 644.7694444444444, N
232380, 645.5, N
232737, 646.4916666666667, N
232973, 647.1472222222222, N
233212, 647.8111111111111, N
233378, 648.2722222222222, V
233667, 649.075, N
233892, 649.7, N
234133, 650.3694444444444, N
234309, 650.8583333333333, V
234689, 651.9138888888889, N
234924, 652.5666666666667, N
235183, 653.2861111111112, N
235567, 654.3527777777778, N
235821, 655.0583333333333, N
236081, 655.7805555555556, N
236250, 656.25, V
236576, 657.1555555555556, N
236856, 657.9333333333333, N
237038, 658.4388888888889, V
237342, 659.2833333333333, N
237689, 660.2472222222223, N
237948, 660.9666666666667, N
238222, 661.7277777777778, N
238380, 662.1666666666666, V
238712, 663.0888888888888, N
238940, 663.7222222222222, N
239207, 664.4638888888888, N
239376, 664.9333333333333, V
239690, 665.8055555555555, N
239916, 666.4333333333333, N
240151, 667.0861111111111, N
240375, 667.7083333333334, N
240581, 668.2805555555556, N
240821, 668.9472222222222, N
241000, 669.4444444444445, V
241347, 670.4083333333333, N
241628, 671.1888888888889, N
241806, 671.6833333333333, V
242089, 672.4694444444444, N
242310, 673.0833333333334, N
242521, 673.6694444444445, N
242728, 674.2444444444444, N
242915, 674.7638888888889, V
243225, 675.625, N
243496, 676.3777777777777, N
243694, 676.9277777777778, V
243993, 677.7583333333333, N
244235, 678.4305555555555, N
244459, 679.0527777777778, N
244686, 679.6833333333333, N
244903, 680.2861111111112, N
245172, 681.0333333333333, N
245346, 681.5166666666667, V
245624, 682.2888888888889, N
245863, 682.9527777777778, N
246102, 683.6166666666667, N
246278, 684.1055555555556, V
246585, 684.9583333333334, N
246790, 685.5277777777778, N
247049, 686.2472222222223, N
247337, 687.0472222222222, N
247627, 687.8527777777778, N
247716, 688.1, +
247806, 688.35, V
248117, 689.2138888888888, N
248389, 689.9694444444444, N
248551, 690.4194444444445, V
248868, 691.3, N
249145, 692.0694444444445, N
249320, 692.5555555555555, V
249463, 692.9527777777778, +
249606, 693.35, N
249858, 694.05, N
250193, 694.9805555555556, N
250476, 695.7666666666667, N
250642, 696.2277777777778, V
250912, 696.9777777777778, N
251151, 697.6416666666667, N
251372, 698.2555555555556, N
251582, 698.8388888888888, N
251763, 699.3416666666667, V
252128, 700.3555555555556, N
252349, 700.9694444444444, N
252619, 701.7194444444444, N
252815, 702.2638888888889, N
253014, 702.8166666666667, N
253224, 703.4, N
253307, 703.6305555555556, +
253391, 703.8638888888889, V
253715, 704.7638888888889, N
254005, 705.5694444444445, N
254179, 706.0527777777778, V
254481, 706.8916666666667, N
254751, 707.6416666666667, N
254915, 708.0972222222222, V
255055, 708.4861111111111, +
255195, 708.875, N
255595, 709.9861111111111, N
255850, 710.6944444444445, N
256115, 711.4305555555555, N
256292, 711.9222222222222, V
256614, 712.8166666666667, N
256891, 713.5861111111111, N
257066, 714.0722222222222, V
257345, 714.8472222222222, N
257558, 715.4388888888889, N
257787, 716.075, N
258011, 716.6972222222222, N
258253, 717.3694444444444, N
258502, 718.0611111111111, N
258745, 718.7361111111111, N
258923, 719.2305555555556, V
259184, 719.9555555555555, N
259403, 720.5638888888889, N
259654, 721.2611111111111, N
259881, 721.8916666666667, N
260117, 722.5472222222222, N
260295, 723.0416666666666, V
260610, 723.9166666666666, N
260832, 724.5333333333333, N
261079, 725.2194444444444, N
261161, 725.4472222222222, +
261243, 725.675, V
261526, 726.4611111111111, N
261776, 727.1555555555556, N
261944, 727.6222222222223, V
262267, 728.5194444444444, N
262559, 729.3305555555555, N
262738, 729.8277777777778, V
262903, 730.2861111111112, +
263069, 730.7472222222223, N
263302, 731.3944444444444, N
263552, 732.0888888888888, N
263729, 732.5805555555555, V
264129, 733.6916666666667, N
264366, 734.35, N
264614, 735.0388888888889, N
264799, 735.5527777777778, V
265091, 736.3638888888889, N
265353, 737.0916666666667, N
265576, 737.7111111111111, N
265805, 738.3472222222222, N
265966, 738.7944444444445, V
266269, 739.6361111111111, N
266500, 740.2777777777778, N
266756, 740.9888888888889, N
266984, 741.6222222222223, N
267209, 742.2472222222223, N
267467, 742.9638888888888, N
267712, 743.6444444444444, N
267907, 744.1861111111111, N
268143, 744.8416666666667, N
268368, 745.4666666666667, N
268706, 746.4055555555556, N
268984, 747.1777777777778, N
269217, 747.825, N
269393, 748.3138888888889, V
269690, 749.1388888888889, N
269938, 749.8277777777778, N
270165, 750.4583333333334, N
270329, 750.9138888888889, V
270614, 751.7055555555555, N
270821, 752.2805555555556, N
271068, 752.9666666666667, N
271233, 753.425, V
271593, 754.425, N
272009, 755.5805555555555, N
272418, 756.7166666666667, N
272656, 757.3777777777777, N
272892, 758.0333333333333, N
272977, 758.2694444444444, +
273063, 758.5083333333333, V
273338, 759.2722222222222, N
273540, 759.8333333333334, V
273800, 760.5555555555555, N
273979, 761.0527777777778, V
274162, 761.5611111111111, +
274345, 762.0694444444445, N
274827, 763.4083333333333, N
275188, 764.4111111111112, N
275562, 765.45, N
275814, 766.15, N
276056, 766.8222222222222, N
276305, 767.5138888888889, N
276475, 767.9861111111111, V
276757, 768.7694444444444, N
276989, 769.4138888888889, N
277229, 770.0805555555555, N
277465, 770.7361111111111, N
277698, 771.3833333333333, N
277873, 771.8694444444444, V
278168, 772.6888888888889, N
278484, 773.5666666666667, N
278747, 774.2972222222222, N
278977, 774.9361111111111, N
279214, 775.5944444444444, N
279573, 776.5916666666667, N
280051, 777.9194444444445, N
280543, 779.2861111111112, N
280812, 780.0333333333333, N
280969, 780.4694444444444, V
281284, 781.3444444444444, N
281534, 782.0388888888889, N
281769, 782.6916666666667, N
282126, 783.6833333333333, N
282399, 784.4416666666667, N
282509, 784.7472222222223, +
282581, 784.9472222222222, V
282796, 785.5444444444445, V
282930, 785.9166666666666, V
283150, 786.5277777777778, +
283282, 786.8944444444444, N
283537, 787.6027777777778, N
283761, 788.225, N
283999, 788.8861111111111, N
284163, 789.3416666666667, V
284556, 790.4333333333333, N
284797, 791.1027777777778, N
285208, 792.2444444444444, N
285426, 792.85, N
285801, 793.8916666666667, N
286045, 794.5694444444445, N
286279, 795.2194444444444, N
286560, 796.0, N
286863, 796.8416666666667, N
287036, 797.3222222222222, V
287460, 798.5, N
287766, 799.35, N
287994, 799.9833333333333, N
288235, 800.6527777777778, N
288495, 801.375, N
288663, 801.8416666666667, V
289161, 803.225, N
289413, 803.925, N
289579, 804.3861111111111, V
289872, 805.2, N
290115, 805.875, N
290518, 806.9944444444444, N
290779, 807.7194444444444, N
291028, 808.4111111111112, N
291276, 809.1, N
291442, 809.5611111111111, V
291736, 810.3777777777777, N
291907, 810.8527777777778, V
292217, 811.7138888888888, N
292623, 812.8416666666667, N
292876, 813.5444444444445, N
293172, 814.3666666666667, N
293464, 815.1777777777778, N
293634, 815.65, V
294136, 817.0444444444445, N
294376, 817.7111111111111, N
294590, 818.3055555555555, N
294829, 818.9694444444444, N
294997, 819.4361111111111, V
295291, 820.2527777777777, N
295539, 820.9416666666667, N
295768, 821.5777777777778, N
296110, 822.5277777777778, N
296367, 823.2416666666667, N
296536, 823.7111111111111, V
296872, 824.6444444444444, N
297272, 825.7555555555556, N
297608, 826.6888888888889, N
297933, 827.5916666666667, N
298395, 828.875, N
298752, 829.8666666666667, N
298972, 830.4777777777778, N
299288, 831.3555555555556, N
299496, 831.9333333333333, V
299780, 832.7222222222222, N
300018, 833.3833333333333, N
300243, 834.0083333333333, N
300410, 834.4722222222222, V
300701, 835.2805555555556, N
300971, 836.0305555555556, N
301134, 836.4833333333333, V
301526, 837.5722222222222, N
301770, 838.25, N
302024, 838.9555555555555, N
302203, 839.4527777777778, V
302483, 840.2305555555556, N
302701, 840.8361111111111, N
302932, 841.4777777777778, N
303035, 841.7638888888889, +
303093, 841.925, V
303257, 842.3805555555556, V
303431, 842.8638888888889, V
303654, 843.4833333333333, +
303737, 843.7138888888888, N
304112, 844.7555555555556, N
304466, 845.7388888888889, N
304721, 846.4472222222222, N
304947, 847.075, N
305192, 847.7555555555556, N
305500, 848.6111111111111, N
305668, 849.0777777777778, V
305992, 849.9777777777778, N
306356, 850.9888888888889, N
306595, 851.6527777777778, N
306815, 852.2638888888889, N
307027, 852.8527777777778, N
307188, 853.3, V
307476, 854.1, N
307702, 854.7277777777778, N
307971, 855.475, N
308416, 856.7111111111111, N
308712, 857.5333333333333, N
308872, 857.9777777777778, V
309223, 858.9527777777778, N
309470, 859.6388888888889, N
309691, 860.2527777777777, N
309986, 861.0722222222222, N
310216, 861.7111111111111, N
310482, 862.45, N
310894, 863.5944444444444, N
311143, 864.2861111111112, N
311420, 865.0555555555555, N
311583, 865.5083333333333, V
311845, 866.2361111111111, N
312072, 866.8666666666667, N
312345, 867.625, N
312518, 868.1055555555556, V
312855, 869.0416666666666, N
313087, 869.6861111111111, N
313291, 870.2527777777777, N
313471, 870.7527777777777, V
313738, 871.4944444444444, N
313950, 872.0833333333334, N
314183, 872.7305555555556, N
314371, 873.2527777777777, V
314665, 874.0694444444445, N
314923, 874.7861111111112, N
315216, 875.6, N
315438, 876.2166666666667, N
315764, 877.1222222222223, N
316015, 877.8194444444445, N
316249, 878.4694444444444, N
316418, 878.9388888888889, V
316717, 879.7694444444444, N
316970, 880.4722222222222, N
317273, 881.3138888888889, N
317434, 881.7611111111111, V
317768, 882.6888888888889, N
317978, 883.2722222222222, N
318171, 883.8083333333333, N
318454, 884.5944444444444, N
318691, 885.2527777777777, N
318937, 885.9361111111111, N
319119, 886.4416666666667, V
319434, 887.3166666666667, N
319673, 887.9805555555556, N
319909, 888.6361111111111, N
320145, 889.2916666666666, N
320410, 890.0277777777778, N
320662, 890.7277777777778, N
320947, 891.5194444444444, N
321212, 892.2555555555556, N
321462, 892.95, N
321629, 893.4138888888889, V
321987, 894.4083333333333, N
322212, 895.0333333333333, N
322471, 895.7527777777777, N
322711, 896.4194444444445, N
322932, 897.0333333333333, N
323161, 897.6694444444445, N
323342, 898.1722222222222, V
323698, 899.1611111111112, N
323977, 899.9361111111111, N
324138, 900.3833333333333, V
324487, 901.3527777777778, N
324740, 902.0555555555555, N
325056, 902.9333333333333, N
325282, 903.5611111111111, N
325509, 904.1916666666667, N
325797, 904.9916666666667, N
325969, 905.4694444444444, V
326254, 906.2611111111111, N
326563, 907.1194444444444, N
326718, 907.55, V
327139, 908.7194444444444, N
327420, 909.5, N
327654, 910.15, N
327876, 910.7666666666667, N
328045, 911.2361111111111, V
328547, 912.6305555555556, N
329034, 913.9833333333333, N
329373, 914.925, N
329699, 915.8305555555555, N
329959, 916.5527777777778, N
330201, 917.225, N
330428, 917.8555555555556, N
330647, 918.4638888888888, N
330806, 918.9055555555556, V
331101, 919.725, N
331369, 920.4694444444444, N
331540, 920.9444444444445, V
332037, 922.325, N
332297, 923.0472222222222, N
332527, 923.6861111111111, N
332708, 924.1888888888889, V
333076, 925.2111111111111, N
333287, 925.7972222222222, N
333556, 926.5444444444445, N
333809, 927.2472222222223, N
334050, 927.9166666666666, N
334301, 928.6138888888889, N
334472, 929.0888888888888, V
334878, 930.2166666666667, N
335091, 930.8083333333333, N
335319, 931.4416666666667, N
335578, 932.1611111111112, N
335810, 932.8055555555555, N
336103, 933.6194444444444, N
336381, 934.3916666666667, N
336618, 935.05, N
336855, 935.7083333333334, N
337107, 936.4083333333333, N
337468, 937.4111111111112, N
337759, 938.2194444444444, N
337923, 938.675, V
338262, 939.6166666666667, N
338504, 940.2888888888889, N
338750, 940.9722222222222, N
338982, 941.6166666666667, N
339142, 942.0611111111111, V
339453, 942.925, N
339665, 943.5138888888889, N
339905, 944.1805555555555, N
340137, 944.825, N
340383, 945.5083333333333, N
340653, 946.2583333333333, N
340891, 946.9194444444445, N
341166, 947.6833333333333, N
341331, 948.1416666666667, V
341682, 949.1166666666667, N
341921, 949.7805555555556, N
342305, 950.8472222222222, N
342543, 951.5083333333333, N
342800, 952.2222222222222, N
342971, 952.6972222222222, V
343306, 953.6277777777777, N
343535, 954.2638888888889, N
343827, 955.075, N
344083, 955.7861111111112, N
344251, 956.2527777777777, V
344522, 957.0055555555556, N
344743, 957.6194444444444, N
344964, 958.2333333333333, N
345149, 958.7472222222223, V
345446, 959.5722222222222, N
345692, 960.2555555555556, N
345932, 960.9222222222222, N
346153, 961.5361111111112, N
346393, 962.2027777777778, N
346613, 962.8138888888889, N
346829, 963.4138888888889, N
347078, 964.1055555555556, N
347469, 965.1916666666667, N
347670, 965.75, N
347932, 966.4777777777778, N
348019, 966.7194444444444, +
348107, 966.9638888888888, V
348573, 968.2583333333333, N
348869, 969.0805555555555, N
349040, 969.5555555555555, V
349351, 970.4194444444445, N
349620, 971.1666666666666, N
349785, 971.625, V
350104, 972.5111111111111, N
350377, 973.2694444444444, N
350540, 973.7222222222222, V
350701, 974.1694444444445, +
350862, 974.6166666666667, N
351114, 975.3166666666667, N
351324, 975.9, N
351622, 976.7277777777778, N
351865, 977.4027777777778, N
352172, 978.2555555555556, N
352385, 978.8472222222222, N
352595, 979.4305555555555, N
352794, 979.9833333333333, N
353006, 980.5722222222222, N
353254, 981.2611111111111, N
353528, 982.0222222222222, N
353810, 982.8055555555555, N
353980, 983.2777777777778, V
354306, 984.1833333333333, N
354531, 984.8083333333333, N
354756, 985.4333333333333, N
354919, 985.8861111111111, V
355268, 986.8555555555556, N
355497, 987.4916666666667, N
355758, 988.2166666666667, N
355984, 988.8444444444444, N
356211, 989.475, N
356401, 990.0027777777777, V
356662, 990.7277777777778, N
356897, 991.3805555555556, N
357117, 991.9916666666667, N
357283, 992.4527777777778, V
357617, 993.3805555555556, N
358017, 994.4916666666667, N
358353, 995.425, N
358594, 996.0944444444444, N
358807, 996.6861111111111, N
359042, 997.3388888888888, N
359201, 997.7805555555556, V
359469, 998.525, N
359751, 999.3083333333333, N
359920, 999.7777777777778, V
360291, 1000.8083333333333, N
360533, 1001.4805555555556, N
360776, 1002.1555555555556, N
360938, 1002.6055555555556, V
361271, 1003.5305555555556, N
361513, 1004.2027777777778, N
361910, 1005.3055555555555, N
362187, 1006.075, N
362352, 1006.5333333333333, V
362675, 1007.4305555555555, N
362995, 1008.3194444444445, N
363215, 1008.9305555555555, N
363471, 1009.6416666666667, N
363639, 1010.1083333333333, V
363933, 1010.925, N
364178, 1011.6055555555556, N
364406, 1012.2388888888889, N
364668, 1012.9666666666667, N
364752, 1013.2, +
364836, 1013.4333333333333, V
365150, 1014.3055555555555, N
365390, 1014.9722222222222, N
365557, 1015.4361111111111, V
365878, 1016.3277777777778, N
366183, 1017.175, N
366347, 1017.6305555555556, V
366521, 1018.1138888888889, +
366695, 1018.5972222222222, N
366931, 1019.2527777777777, N
367226, 1020.0722222222222, N
367381, 1020.5027777777777, V
367680, 1021.3333333333334, N
367916, 1021.9888888888889, N
368096, 1022.4888888888889, V
368381, 1023.2805555555556, N
368552, 1023.7555555555556, V
369008, 1025.0222222222221, N
369264, 1025.7333333333333, N
369543, 1026.5083333333334, N
369699, 1026.9416666666666, V
369997, 1027.7694444444444, N
370231, 1028.4194444444445, N
370467, 1029.075, N
370649, 1029.5805555555555, V
371009, 1030.5805555555555, N
371303, 1031.3972222222221, N
371474, 1031.8722222222223, V
371841, 1032.8916666666667, N
372062, 1033.5055555555555, N
372284, 1034.1222222222223, N
372528, 1034.8, N
372706, 1035.2944444444445, V
373042, 1036.2277777777779, N
373367, 1037.1305555555555, N
373534, 1037.5944444444444, V
373907, 1038.6305555555555, N
374164, 1039.3444444444444, N
374465, 1040.1805555555557, N
374738, 1040.9388888888889, N
374998, 1041.661111111111, N
375176, 1042.1555555555556, V
375529, 1043.1361111111112, N
375869, 1044.0805555555555, N
376104, 1044.7333333333333, N
376412, 1045.588888888889, N
376568, 1046.0222222222221, V
376865, 1046.8472222222222, N
377104, 1047.5111111111112, N
377338, 1048.161111111111, N
377521, 1048.6694444444445, ~
377570, 1048.8055555555557, N
377745, 1049.2916666666667, V
378045, 1050.125, N
378430, 1051.1944444444443, N
378482, 1051.338888888889, ~
378654, 1051.8166666666666, N
378895, 1052.486111111111, N
379092, 1053.0333333333333, V
379364, 1053.7888888888888, N
379603, 1054.4527777777778, N
379851, 1055.1416666666667, N
380036, 1055.6555555555556, V
380323, 1056.4527777777778, N
380550, 1057.0833333333333, N
380777, 1057.713888888889, N
380945, 1058.1805555555557, V
381303, 1059.175, N
381546, 1059.85, N
381793, 1060.536111111111, N
381959, 1060.9972222222223, V
382234, 1061.7611111111112, N
382651, 1062.9194444444445, N
382882, 1063.5611111111111, N
383109, 1064.1916666666666, N
383342, 1064.838888888889, N
383519, 1065.3305555555555, V
383825, 1066.1805555555557, N
384223, 1067.286111111111, N
384489, 1068.025, N
384725, 1068.6805555555557, N
384961, 1069.3361111111112, N
385208, 1070.0222222222221, N
385368, 1070.4666666666667, V
385710, 1071.4166666666667, N
385975, 1072.1527777777778, N
386267, 1072.963888888889, N
386436, 1073.4333333333334, V
386778, 1074.3833333333334, V
387018, 1075.05, N
387185, 1075.513888888889, V
387513, 1076.425, N
387914, 1077.5388888888888, N
388243, 1078.4527777777778, N
388503, 1079.175, N
388731, 1079.8083333333334, N
388973, 1080.4805555555556, N
389151, 1080.975, V
389482, 1081.8944444444444, N
389705, 1082.513888888889, N
389959, 1083.2194444444444, N
390125, 1083.6805555555557, V
390507, 1084.7416666666666, N
390764, 1085.4555555555555, N
391004, 1086.1222222222223, N
391189, 1086.6361111111112, V
391512, 1087.5333333333333, N
391747, 1088.1861111111111, N
391991, 1088.8638888888888, N
392169, 1089.3583333333333, V
392721, 1090.8916666666667, N
393198, 1092.2166666666667, N
393527, 1093.1305555555555, N
393792, 1093.8666666666666, N
394071, 1094.6416666666667, N
394240, 1095.111111111111, V
394599, 1096.1083333333333, N
395055, 1097.375, N
395314, 1098.0944444444444, N
395420, 1098.388888888889, ~
395473, 1098.536111111111, V
395742, 1099.2833333333333, N
395865, 1099.625, ~
396139, 1100.3861111111112, N
396396, 1101.1, N
396640, 1101.7777777777778, N
396876, 1102.4333333333334, N
397186, 1103.2944444444445, N
397600, 1104.4444444444443, N
397865, 1105.1805555555557, N
398032, 1105.6444444444444, V
398429, 1106.7472222222223, N
398912, 1108.088888888889, N
399163, 1108.786111111111, N
399436, 1109.5444444444445, N
399600, 1110.0, V
399934, 1110.9277777777777, N
400175, 1111.5972222222222, N
400436, 1112.3222222222223, N
400603, 1112.786111111111, V
400910, 1113.638888888889, N
401146, 1114.2944444444445, N
401607, 1115.575, N
401914, 1116.4277777777777, N
402133, 1117.036111111111, N
402359, 1117.6638888888888, N
402663, 1118.5083333333334, N
402833, 1118.9805555555556, V
403161, 1119.8916666666667, N
403418, 1120.6055555555556, N
403643, 1121.2305555555556, N
403867, 1121.8527777777779, N
404034, 1122.3166666666666, V
404339, 1123.1638888888888, N
404622, 1123.95, N
404781, 1124.3916666666667, V
405073, 1125.2027777777778, N
405317, 1125.8805555555555, N
405583, 1126.6194444444445, N
405762, 1127.1166666666666, V
406131, 1128.1416666666667, N
406368, 1128.8, N
406613, 1129.4805555555556, N
406779, 1129.9416666666666, V
407187, 1131.075, N
407479, 1131.8861111111112, N
407925, 1133.125, N
408358, 1134.3277777777778, N
408610, 1135.0277777777778, N
408772, 1135.4777777777779, V
409071, 1136.3083333333334, N
409293, 1136.925, N
409535, 1137.5972222222222, N
409712, 1138.088888888889, V
410072, 1139.088888888889, N
410396, 1139.9888888888888, N
410560, 1140.4444444444443, V
410900, 1141.388888888889, N
411132, 1142.0333333333333, N
411366, 1142.6833333333334, N
411539, 1143.1638888888888, V
411925, 1144.236111111111, N
412167, 1144.9083333333333, N
412418, 1145.6055555555556, N
412592, 1146.088888888889, V
412919, 1146.9972222222223, N
413207, 1147.7972222222222, N
413372, 1148.2555555555555, V
413907, 1149.7416666666666, N
414153, 1150.425, N
414387, 1151.075, N
414694, 1151.9277777777777, N
414905, 1152.513888888889, N
415187, 1153.2972222222222, N
415424, 1153.9555555555555, N
415561, 1154.3361111111112, ~
415663, 1154.6194444444445, N
415912, 1155.3111111111111, N
416040, 1155.6666666666667, ~
416080, 1155.7777777777778, V
416451, 1156.8083333333334, N
416617, 1157.2694444444444, V
416930, 1158.138888888889, N
417188, 1158.8555555555556, N
417413, 1159.4805555555556, N
417641, 1160.1138888888888, N
417926, 1160.9055555555556, N
418197, 1161.6583333333333, N
418459, 1162.3861111111112, N
418754, 1163.2055555555555, N
419075, 1164.0972222222222, N
419308, 1164.7444444444445, N
419574, 1165.4833333333333, N
419979, 1166.6083333333333, N
420215, 1167.263888888889, N
420467, 1167.963888888889, N
420735, 1168.7083333333333, N
420902, 1169.1722222222222, V
421199, 1169.9972222222223, N
421418, 1170.6055555555556, N
421703, 1171.3972222222221, N
422008, 1172.2444444444445, N
422174, 1172.7055555555555, V
422526, 1173.6833333333334, N
422790, 1174.4166666666667, N
423051, 1175.1416666666667, N
423217, 1175.6027777777779, V
423534, 1176.4833333333333, N
423761, 1177.1138888888888, N
423982, 1177.7277777777779, N
424220, 1178.388888888889, N
424382, 1178.838888888889, V
424707, 1179.7416666666666, N
424967, 1180.463888888889, N
425146, 1180.9611111111112, V
425387, 1181.6305555555555, ~
425487, 1181.9083333333333, N
425736, 1182.6, N
425973, 1183.2583333333334, N
426140, 1183.7222222222222, V
426504, 1184.7333333333333, N
426790, 1185.5277777777778, ~
426832, 1185.6444444444444, N
427076, 1186.3222222222223, N
427307, 1186.963888888889, N
427561, 1187.6694444444445, N
427717, 1188.1027777777779, V
428035, 1188.986111111111, N
428342, 1189.838888888889, N
428593, 1190.536111111111, N
428996, 1191.6555555555556, N
429335, 1192.5972222222222, N
429652, 1193.4777777777779, N
429900, 1194.1666666666667, N
430138, 1194.8277777777778, N
430429, 1195.6361111111112, N
430736, 1196.4888888888888, N
430899, 1196.9416666666666, V
431231, 1197.8638888888888, N
431483, 1198.5638888888889, N
431731, 1199.2527777777777, N
431913, 1199.7583333333334, V
432182, 1200.5055555555555, N
432403, 1201.1194444444445, N
432732, 1202.0333333333333, N
432964, 1202.6777777777777, N
433185, 1203.2916666666667, N
433385, 1203.8472222222222, V
433841, 1205.1138888888888, N
434278, 1206.3277777777778, N
434509, 1206.9694444444444, N
434736, 1207.6, N
435163, 1208.786111111111, N
435406, 1209.4611111111112, N
435668, 1210.1888888888889, N
435975, 1211.0416666666667, N
436222, 1211.7277777777779, N
436509, 1212.525, N
436693, 1213.036111111111, V
437007, 1213.9083333333333, N
437170, 1214.361111111111, V
437454, 1215.15, N
437692, 1215.8111111111111, N
437916, 1216.4333333333334, N
438109, 1216.9694444444444, V
438410, 1217.8055555555557, N
438652, 1218.4777777777779, N
439071, 1219.6416666666667, N
439411, 1220.5861111111112, N
439717, 1221.4361111111111, N
439894, 1221.9277777777777, V
440218, 1222.8277777777778, N
440624, 1223.9555555555555, N
440844, 1224.5666666666666, N
441069, 1225.1916666666666, N
441237, 1225.6583333333333, V
441500, 1226.388888888889, N
441762, 1227.1166666666666, N
441947, 1227.6305555555555, V
442252, 1228.4777777777779, N
442502, 1229.1722222222222, N
442779, 1229.9416666666666, N
442939, 1230.3861111111112, V
443243, 1231.2305555555556, N
443481, 1231.8916666666667, N
443801, 1232.7805555555556, N
444057, 1233.4916666666666, N
444300, 1234.1666666666667, N
444579, 1234.9416666666666, N
444741, 1235.3916666666667, V
445033, 1236.2027777777778, N
445298, 1236.9388888888889, N
445473, 1237.425, V
445773, 1238.2583333333334, N
446199, 1239.4416666666666, N
446463, 1240.175, N
446729, 1240.9138888888888, N
447143, 1242.0638888888889, N
447377, 1242.713888888889, N
447660, 1243.5, N
447821, 1243.9472222222223, V
448381, 1245.5027777777777, N
448819, 1246.7194444444444, N
449097, 1247.4916666666666, N
449260, 1247.9444444444443, V
449572, 1248.8111111111111, N
449885, 1249.6805555555557, N
450045, 1250.125, V
450354, 1250.9833333333333, V
450687, 1251.9083333333333, N
450930, 1252.5833333333333, N
451174, 1253.2611111111112, N
451346, 1253.7388888888888, V
451639, 1254.5527777777777, N
451961, 1255.4472222222223, N
452122, 1255.8944444444444, V
452453, 1256.8138888888889, N
452706, 1257.5166666666667, N
453196, 1258.8777777777777, N
453674, 1260.2055555555555, N
453898, 1260.8277777777778, N
454263, 1261.8416666666667, N
454681, 1263.0027777777777, N
454926, 1263.6833333333334, N
455189, 1264.4138888888888, N
455364, 1264.9, V
455778, 1266.05, N
456020, 1266.7222222222222, N
456269, 1267.4138888888888, N
456433, 1267.8694444444445, V
456837, 1268.9916666666666, N
457311, 1270.3083333333334, N
457576, 1271.0444444444445, N
457864, 1271.8444444444444, N
458023, 1272.286111111111, V
458426, 1273.4055555555556, N
458668, 1274.0777777777778, N
458893, 1274.7027777777778, N
459238, 1275.661111111111, N
459560, 1276.5555555555557, N
459821, 1277.2805555555556, N
459988, 1277.7444444444445, V
460276, 1278.5444444444445, N
460587, 1279.4083333333333, N
460748, 1279.8555555555556, V
461063, 1280.7305555555556, N
461420, 1281.7222222222222, N
461671, 1282.4194444444445, N
461930, 1283.138888888889, N
462101, 1283.6138888888888, V
462394, 1284.4277777777777, N
462610, 1285.0277777777778, N
462856, 1285.7111111111112, N
463028, 1286.1888888888889, V
463336, 1287.0444444444445, N
463628, 1287.8555555555556, N
463889, 1288.5805555555555, N
464062, 1289.0611111111111, V
464350, 1289.861111111111, N
464577, 1290.4916666666666, N
464848, 1291.2444444444445, N
465003, 1291.675, V
465335, 1292.5972222222222, N
465579, 1293.275, N
465830, 1293.9722222222222, N
466137, 1294.825, N
466401, 1295.5583333333334, N
466657, 1296.2694444444444, N
466909, 1296.9694444444444, N
467239, 1297.8861111111112, N
467732, 1299.2555555555555, N
468298, 1300.8277777777778, N
468547, 1301.5194444444444, N
468714, 1301.9833333333333, V
469063, 1302.9527777777778, N
469284, 1303.5666666666666, N
469499, 1304.1638888888888, N
469969, 1305.4694444444444, N
470392, 1306.6444444444444, N
470626, 1307.2944444444445, N
470883, 1308.0083333333334, N
471046, 1308.4611111111112, V
471410, 1309.4722222222222, N
471810, 1310.5833333333333, N
472030, 1311.1944444444443, N
472266, 1311.85, N
472506, 1312.5166666666667, N
472680, 1313.0, V
472993, 1313.8694444444445, N
473225, 1314.513888888889, N
473445, 1315.125, N
473698, 1315.8277777777778, N
473934, 1316.4833333333333, N
474159, 1317.1083333333333, N
474392, 1317.7555555555555, N
474683, 1318.5638888888889, N
474949, 1319.3027777777777, N
475282, 1320.2277777777779, N
475497, 1320.825, N
475720, 1321.4444444444443, N
476009, 1322.2472222222223, N
476266, 1322.9611111111112, N
476675, 1324.0972222222222, N
477126, 1325.35, N
477386, 1326.0722222222223, N
477565, 1326.5694444444443, V
477827, 1327.2972222222222, N
478069, 1327.9694444444444, N
478387, 1328.8527777777779, N
478638, 1329.55, N
479068, 1330.7444444444445, N
479329, 1331.4694444444444, N
479708, 1332.5222222222221, N
480138, 1333.7166666666667, N
480371, 1334.3638888888888, N
480602, 1335.0055555555555, N
480928, 1335.911111111111, N
481192, 1336.6444444444444, N
481506, 1337.5166666666667, N
481840, 1338.4444444444443, N
481996, 1338.8777777777777, V
482466, 1340.1833333333334, N
482733, 1340.925, N
483054, 1341.8166666666666, N
483327, 1342.575, N
483480, 1343.0, V
483868, 1344.0777777777778, N
484113, 1344.7583333333334, N
484433, 1345.6472222222221, N
484660, 1346.2777777777778, N
484902, 1346.95, N
485381, 1348.2805555555556, N
485851, 1349.5861111111112, N
486080, 1350.2222222222222, N
486379, 1351.0527777777777, N
486619, 1351.7194444444444, N
486847, 1352.3527777777779, N
487118, 1353.1055555555556, N
487368, 1353.8, N
487621, 1354.5027777777777, N
487933, 1355.3694444444445, N
488381, 1356.6138888888888, N
488637, 1357.325, N
488802, 1357.7833333333333, V
489228, 1358.9666666666667, N
489502, 1359.7277777777779, N
489751, 1360.4194444444445, N
489925, 1360.9027777777778, V
490225, 1361.736111111111, N
490415, 1362.263888888889, V
490784, 1363.2888888888888, N
491009, 1363.9138888888888, N
491326, 1364.7944444444445, N
491575, 1365.486111111111, N
491849, 1366.2472222222223, N
492303, 1367.5083333333334, N
492562, 1368.2277777777779, N
492728, 1368.6888888888889, V
493028, 1369.5222222222221, N
493258, 1370.161111111111, N
493515, 1370.875, N
493785, 1371.625, N
494052, 1372.3666666666666, N
494331, 1373.1416666666667, N
494572, 1373.8111111111111, N
494914, 1374.7611111111112, N
495238, 1375.661111111111, N
495493, 1376.3694444444445, N
495774, 1377.15, N
496110, 1378.0833333333333, N
496376, 1378.8222222222223, N
496675, 1379.6527777777778, N
496839, 1380.1083333333333, V
497149, 1380.9694444444444, N
497399, 1381.6638888888888, N
497637, 1382.325, N
497951, 1383.1972222222223, N
498393, 1384.425, N
498705, 1385.2916666666667, N
498866, 1385.7388888888888, V
499284, 1386.9, N
499733, 1388.1472222222221, N
499996, 1388.8777777777777, N
500285, 1389.6805555555557, N
500635, 1390.6527777777778, N
500923, 1391.4527777777778, N
501353, 1392.6472222222221, N
501588, 1393.3, N
502020, 1394.5, N
502571, 1396.0305555555556, N
502817, 1396.713888888889, N
503077, 1397.4361111111111, N
503236, 1397.8777777777777, V
503607, 1398.9083333333333, N
504009, 1400.025, N
504335, 1400.9305555555557, N
504663, 1401.8416666666667, N
504868, 1402.411111111111, V
505246, 1403.4611111111112, N
505490, 1404.138888888889, N
505781, 1404.9472222222223, N
506287, 1406.3527777777779, N
506554, 1407.0944444444444, N
506733, 1407.5916666666667, V
507061, 1408.5027777777777, N
507407, 1409.463888888889, N
507649, 1410.1361111111112, N
507998, 1411.1055555555556, N
508340, 1412.0555555555557, N
508623, 1412.8416666666667, N
509047, 1414.0194444444444, N
509327, 1414.7972222222222, N
509587, 1415.5194444444444, N
509760, 1416.0, V
510105, 1416.9583333333333, N
510425, 1417.8472222222222, N
510587, 1418.2972222222222, V
510881, 1419.1138888888888, N
511137, 1419.825, N
511449, 1420.6916666666666, N
511623, 1421.175, V
511919, 1421.9972222222223, N
512177, 1422.713888888889, N
512338, 1423.161111111111, V
512660, 1424.0555555555557, N
512934, 1424.8166666666666, N
513236, 1425.6555555555556, N
513519, 1426.4416666666666, N
513824, 1427.2888888888888, N
514114, 1428.0944444444444, N
514349, 1428.7472222222223, N
514646, 1429.5722222222223, N
514813, 1430.036111111111, V
515194, 1431.0944444444444, N
515674, 1432.4277777777777, N
515932, 1433.1444444444444, N
516219, 1433.9416666666666, N
516535, 1434.8194444444443, N
516796, 1435.5444444444445, N
517068, 1436.3, N
517609, 1437.8027777777777, N
517953, 1438.7583333333334, N
518212, 1439.4777777777779, N
518476, 1440.2111111111112, N
518734, 1440.9277777777777, N
518981, 1441.6138888888888, N
519220, 1442.2777777777778, N
519471, 1442.975, N
519639, 1443.4416666666666, V
519985, 1444.4027777777778, N
520245, 1445.125, N
520485, 1445.7916666666667, N
521012, 1447.2555555555555, N
521339, 1448.1638888888888, N
521609, 1448.9138888888888, N
521867, 1449.6305555555555, N
522050, 1450.138888888889, V
522373, 1451.036111111111, N
522597, 1451.6583333333333, N
522837, 1452.325, N
523060, 1452.9444444444443, N
523292, 1453.588888888889, N
523687, 1454.6861111111111, N
524036, 1455.6555555555556, N
524279, 1456.3305555555555, N
524579, 1457.1638888888888, N
524841, 1457.8916666666667, N
525069, 1458.525, N
525327, 1459.2416666666666, N
525720, 1460.3333333333333, N
525983, 1461.0638888888889, N
526154, 1461.5388888888888, V
526580, 1462.7222222222222, N
527108, 1464.1888888888889, N
527428, 1465.0777777777778, N
527658, 1465.7166666666667, N
527829, 1466.1916666666666, V
528256, 1467.3777777777777, N
528536, 1468.1555555555556, N
528775, 1468.8194444444443, N
528958, 1469.3277777777778, V
529221, 1470.0583333333334, N
529446, 1470.6833333333334, N
529676, 1471.3222222222223, N
529927, 1472.0194444444444, N
530150, 1472.638888888889, N
530379, 1473.275, N
530620, 1473.9444444444443, N
530794, 1474.4277777777777, V
531139, 1475.3861111111112, N
531398, 1476.1055555555556, N
531682, 1476.8944444444444, N
531958, 1477.661111111111, N
532275, 1478.5416666666667, N
532589, 1479.4138888888888, N
532894, 1480.2611111111112, N
533190, 1481.0833333333333, N
533432, 1481.7555555555555, N
533662, 1482.3944444444444, N
533901, 1483.0583333333334, N
534225, 1483.9583333333333, N
534544, 1484.8444444444444, N
534713, 1485.3138888888889, V
535074, 1486.3166666666666, N
535332, 1487.0333333333333, N
535501, 1487.5027777777777, V
536028, 1488.9666666666667, N
536276, 1489.6555555555556, N
536606, 1490.5722222222223, N
536863, 1491.286111111111, N
537303, 1492.5083333333334, N
537704, 1493.6222222222223, N
538025, 1494.513888888889, N
538266, 1495.1833333333334, N
538538, 1495.9388888888889, N
538840, 1496.7777777777778, N
539096, 1497.4888888888888, N
539440, 1498.4444444444443, N
539709, 1499.1916666666666, N
539955, 1499.875, N
540200, 1500.5555555555557, N
540473, 1501.3138888888889, N
540712, 1501.9777777777779, N
540912, 1502.5333333333333, V
541275, 1503.5416666666667, N
541527, 1504.2416666666666, N
541789, 1504.9694444444444, N
542033, 1505.6472222222221, N
542272, 1506.3111111111111, N
542672, 1507.4222222222222, N
543006, 1508.35, N
543286, 1509.1277777777777, N
543580, 1509.9444444444443, N
543883, 1510.786111111111, N
544145, 1511.513888888889, N
544328, 1512.0222222222221, V
544686, 1513.0166666666667, N
545002, 1513.8944444444444, N
545244, 1514.5666666666666, N
545517, 1515.325, N
545828, 1516.1888888888889, N
546175, 1517.1527777777778, N
546433, 1517.8694444444445, N
546665, 1518.513888888889, N
546961, 1519.3361111111112, N
547324, 1520.3444444444444, N
547571, 1521.0305555555556, N
547926, 1522.0166666666667, N
548258, 1522.9388888888889, N
548511, 1523.6416666666667, N
548783, 1524.3972222222221, N
549019, 1525.0527777777777, N
549282, 1525.7833333333333, N
549587, 1526.6305555555555, N
549837, 1527.325, N
550239, 1528.4416666666666, N
550519, 1529.2194444444444, N
550691, 1529.6972222222223, V
551207, 1531.1305555555555, N
551446, 1531.7944444444445, N
551608, 1532.2444444444445, V
551978, 1533.2722222222221, N
552264, 1534.0666666666666, N
552570, 1534.9166666666667, N
552827, 1535.6305555555555, N
553242, 1536.7833333333333, N
553503, 1537.5083333333334, N
553908, 1538.6333333333334, N
554204, 1539.4555555555555, N
554380, 1539.9444444444443, V
554706, 1540.85, N
555025, 1541.736111111111, N
555258, 1542.3833333333334, N
555528, 1543.1333333333334, N
555763, 1543.786111111111, N
556073, 1544.6472222222221, N
556329, 1545.3583333333333, N
556622, 1546.1722222222222, N
556945, 1547.0694444444443, N
557192, 1547.7555555555555, N
557437, 1548.4361111111111, N
557732, 1549.2555555555555, N
557963, 1549.8972222222221, N
558212, 1550.588888888889, N
558542, 1551.5055555555555, N
558847, 1552.3527777777779, N
559110, 1553.0833333333333, N
559510, 1554.1944444444443, N
559799, 1554.9972222222223, N
559957, 1555.4361111111111, V
560315, 1556.4305555555557, N
560577, 1557.1583333333333, N
560838, 1557.8833333333334, N
561158, 1558.7722222222221, N
561448, 1559.5777777777778, N
561619, 1560.0527777777777, V
561913, 1560.8694444444445, N
562345, 1562.0694444444443, N
562594, 1562.7611111111112, N
562832, 1563.4222222222222, N
563143, 1564.286111111111, N
563644, 1565.6777777777777, N
563892, 1566.3666666666666, N
564117, 1566.9916666666666, N
564301, 1567.5027777777777, V
564566, 1568.2388888888888, N
564855, 1569.0416666666667, N
565122, 1569.7833333333333, N
565441, 1570.6694444444445, N
565685, 1571.3472222222222, N
566002, 1572.2277777777779, N
566234, 1572.8722222222223, N
566457, 1573.4916666666666, N
566678, 1574.1055555555556, N
566842, 1574.5611111111111, V
567153, 1575.425, N
567615, 1576.7083333333333, N
568029, 1577.8583333333333, N
568405, 1578.9027777777778, N
568652, 1579.588888888889, N
568874, 1580.2055555555555, N
569134, 1580.9277777777777, N
569425, 1581.736111111111, N
569670, 1582.4166666666667, N
569911, 1583.0861111111112, N
570187, 1583.8527777777779, N
570511, 1584.7527777777777, N
570762, 1585.45, N
571004, 1586.1222222222223, N
571424, 1587.2888888888888, N
571789, 1588.3027777777777, N
572073, 1589.0916666666667, N
572334, 1589.8166666666666, N
572600, 1590.5555555555557, N
572825, 1591.1805555555557, N
572979, 1591.6083333333333, V
573292, 1592.4777777777779, N
573542, 1593.1722222222222, N
573799, 1593.8861111111112, N
574083, 1594.675, N
574354, 1595.4277777777777, N
574750, 1596.5277777777778, N
574994, 1597.2055555555555, N
575287, 1598.0194444444444, N
575554, 1598.7611111111112, N
575814, 1599.4833333333333, N
576137, 1600.3805555555555, N
576650, 1601.8055555555557, N
576961, 1602.6694444444445, N
577183, 1603.286111111111, N
577423, 1603.9527777777778, N
577646, 1604.5722222222223, N
577884, 1605.2333333333333, N
578122, 1605.8944444444444, N
578459, 1606.8305555555555, N
578707, 1607.5194444444444, N
578939, 1608.1638888888888, N
579167, 1608.7972222222222, N
579415, 1609.486111111111, N
579690, 1610.25, N
579944, 1610.9555555555555, N
580322, 1612.0055555555555, N
580785, 1613.2916666666667, N
581031, 1613.975, N
581263, 1614.6194444444445, N
581487, 1615.2416666666666, N
581791, 1616.0861111111112, N
582049, 1616.8027777777777, N
582362, 1617.6722222222222, N
582630, 1618.4166666666667, N
582870, 1619.0833333333333, N
583098, 1619.7166666666667, N
583320, 1620.3333333333333, N
583533, 1620.925, N
583692, 1621.3666666666666, V
584024, 1622.2888888888888, N
584352, 1623.2, N
584801, 1624.4472222222223, N
585052, 1625.1444444444444, N
585231, 1625.6416666666667, V
585485, 1626.3472222222222, N
585698, 1626.9388888888889, N
585911, 1627.5305555555556, N
586137, 1628.1583333333333, N
586368, 1628.8, N
586540, 1629.2777777777778, V
586924, 1630.3444444444444, N
587157, 1630.9916666666666, N
587395, 1631.6527777777778, N
587648, 1632.3555555555556, N
587971, 1633.2527777777777, N
588217, 1633.9361111111111, N
588608, 1635.0222222222221, N
588873, 1635.7583333333334, N
589044, 1636.2333333333333, V
589416, 1637.2666666666667, N
589678, 1637.9944444444445, N
589969, 1638.8027777777777, N
590220, 1639.5, N
590614, 1640.5944444444444, N
590905, 1641.4027777777778, N
591081, 1641.8916666666667, V
591471, 1642.975, N
591698, 1643.6055555555556, N
591920, 1644.2222222222222, N
592175, 1644.9305555555557, N
592436, 1645.6555555555556, N
592828, 1646.7444444444445, N
593090, 1647.4722222222222, N
593260, 1647.9444444444443, V
593591, 1648.8638888888888, N
593823, 1649.5083333333334, N
594047, 1650.1305555555555, N
594295, 1650.8194444444443, N
594526, 1651.4611111111112, N
594760, 1652.111111111111, N
595000, 1652.7777777777778, N
595450, 1654.0277777777778, N
595746, 1654.85, N
595979, 1655.4972222222223, N
596246, 1656.2388888888888, N
596486, 1656.9055555555556, N
596798, 1657.7722222222221, N
597085, 1658.5694444444443, N
597331, 1659.2527777777777, N
597664, 1660.1777777777777, N
597982, 1661.0611111111111, N
598251, 1661.8083333333334, N
598522, 1662.5611111111111, N
598763, 1663.2305555555556, N
598982, 1663.838888888889, N
599211, 1664.475, N
599473, 1665.2027777777778, N
599767, 1666.0194444444444, N
600026, 1666.7388888888888, N
600296, 1667.4888888888888, N
600531, 1668.1416666666667, N
600796, 1668.8777777777777, N
600950, 1669.3055555555557, V
601278, 1670.2166666666667, N
601537, 1670.9361111111111, N
601861, 1671.8361111111112, N
602103, 1672.5083333333334, N
602356, 1673.2111111111112, N
602580, 1673.8333333333333, N
602808, 1674.4666666666667, N
603041, 1675.1138888888888, N
603282, 1675.7833333333333, N
603704, 1676.9555555555555, N
603969, 1677.6916666666666, N
604229, 1678.4138888888888, N
604471, 1679.0861111111112, N
604732, 1679.8111111111111, N
604986, 1680.5166666666667, N
605218, 1681.161111111111, N
605451, 1681.8083333333334, N
605730, 1682.5833333333333, N
605979, 1683.275, N
606303, 1684.175, N
606562, 1684.8944444444444, N
606796, 1685.5444444444445, N
607015, 1686.1527777777778, N
607272, 1686.8666666666666, N
607525, 1687.5694444444443, N
607764, 1688.2333333333333, N
608154, 1689.3166666666666, N
608398, 1689.9944444444445, N
608636, 1690.6555555555556, N
608885, 1691.3472222222222, N
609197, 1692.213888888889, N
609477, 1692.9916666666666, N
609724, 1693.6777777777777, N
609891, 1694.1416666666667, V
610243, 1695.1194444444445, N
610534, 1695.9277777777777, N
610789, 1696.6361111111112, N
611067, 1697.4083333333333, N
611402, 1698.338888888889, N
611803, 1699.4527777777778, N
612145, 1700.4027777777778, N
612405, 1701.125, N
612692, 1701.9222222222222, N
613010, 1702.8055555555557, N
613243, 1703.4527777777778, N
613473, 1704.0916666666667, N
613692, 1704.7, N
613939, 1705.3861111111112, N
614367, 1706.575, N
614631, 1707.3083333333334, N
614925, 1708.125, N
615191, 1708.8638888888888, N
615344, 1709.2888888888888, V
615742, 1710.3944444444444, N
616140, 1711.5, N
616406, 1712.2388888888888, N
616770, 1713.25, N
617248, 1714.5777777777778, N
617692, 1715.8111111111111, N
617934, 1716.4833333333333, N
618169, 1717.1361111111112, N
618537, 1718.1583333333333, N
618787, 1718.8527777777779, N
618965, 1719.3472222222222, V
619328, 1720.3555555555556, N
619667, 1721.2972222222222, N
619887, 1721.9083333333333, N
620119, 1722.5527777777777, N
620343, 1723.175, N
620549, 1723.7472222222223, N
620854, 1724.5944444444444, N
621114, 1725.3166666666666, N
621349, 1725.9694444444444, N
621788, 1727.1888888888889, N
622034, 1727.8722222222223, N
622274, 1728.5388888888888, N
622705, 1729.736111111111, N
622959, 1730.4416666666666, N
623120, 1730.888888888889, V
623447, 1731.7972222222222, N
623763, 1732.675, N
624051, 1733.475, N
624345, 1734.2916666666667, N
624578, 1734.9388888888889, N
624824, 1735.6222222222223, N
625104, 1736.4, N
625366, 1737.1277777777777, N
625660, 1737.9444444444443, N
626139, 1739.275, N
626448, 1740.1333333333334, N
626759, 1740.9972222222223, N
626990, 1741.638888888889, N
627410, 1742.8055555555557, N
627681, 1743.5583333333334, N
628029, 1744.525, N
628268, 1745.1888888888889, N
628528, 1745.911111111111, N
628764, 1746.5666666666666, N
629028, 1747.3, N
629288, 1748.0222222222221, N
629555, 1748.763888888889, N
629814, 1749.4833333333333, N
630154, 1750.4277777777777, N
630442, 1751.2277777777779, N
630686, 1751.9055555555556, N
630976, 1752.7111111111112, N
631296, 1753.6, N
631524, 1754.2333333333333, N
631773, 1754.925, N
632076, 1755.7666666666667, N
632346, 1756.5166666666667, N
632656, 1757.3777777777777, N
632896, 1758.0444444444445, N
633144, 1758.7333333333333, N
633413, 1759.4805555555556, N
633716, 1760.3222222222223, N
633954, 1760.9833333333333, N
634330, 1762.0277777777778, N
634677, 1762.9916666666666, N
634922, 1763.6722222222222, N
635087, 1764.1305555555555, V
635493, 1765.2583333333334, N
635900, 1766.388888888889, N
636148, 1767.0777777777778, N
636417, 1767.825, N
636654, 1768.4833333333333, N
636945, 1769.2916666666667, N
637435, 1770.6527777777778, N
637701, 1771.3916666666667, N
638024, 1772.2888888888888, N
638267, 1772.963888888889, N
638522, 1773.6722222222222, N
638788, 1774.411111111111, N
639139, 1775.3861111111112, N
639548, 1776.5222222222221, N
639851, 1777.3638888888888, N
640071, 1777.975, N
640304, 1778.6222222222223, N
640578, 1779.3833333333334, N
640867, 1780.1861111111111, N
641163, 1781.0083333333334, N
641439, 1781.775, N
641689, 1782.4694444444444, N
641985, 1783.2916666666667, N
642266, 1784.0722222222223, N
642662, 1785.1722222222222, N
642972, 1786.0333333333333, N
643265, 1786.8472222222222, N
643568, 1787.6888888888889, N
643850, 1788.4722222222222, N
644094, 1789.15, N
644316, 1789.7666666666667, N
644549, 1790.4138888888888, N
644791, 1791.0861111111112, N
645053, 1791.8138888888889, N
645314, 1792.5388888888888, N
645604, 1793.3444444444444, N
645835, 1793.986111111111, N
646076, 1794.6555555555556, N
646331, 1795.3638888888888, N
646636, 1796.2111111111112, N
647068, 1797.411111111111, N
647321, 1798.1138888888888, N
647584, 1798.8444444444444, N
647967, 1799.9083333333333, N
648290, 1800.8055555555557, N
648536, 1801.4888888888888, N
648763, 1802.1194444444445, N
648982, 1802.7277777777779, N
649236, 1803.4333333333334, N
649530, 1804.25, N
649810, 1805.0277777777778, N
