17, 0.04722222222222222, +
81, 0.225, N
361, 1.0027777777777778, N
646, 1.7944444444444445, N
892, 2.477777777777778, N
1193, 3.313888888888889, N
1482, 4.116666666666666, N
1778, 4.938888888888889, N
2072, 5.7555555555555555, N
2335, 6.486111111111111, N
2644, 7.344444444444444, N
2939, 8.16388888888889, N
3191, 8.863888888888889, N
3520, 9.777777777777779, N
3831, 10.641666666666667, N
4109, 11.41388888888889, N
4405, 12.23611111111111, N
4690, 13.027777777777779, N
4975, 13.819444444444445, N
5235, 14.541666666666666, N
5571, 15.475, N
5892, 16.366666666666667, N
6193, 17.20277777777778, N
6483, 18.008333333333333, N
6776, 18.822222222222223, N
7031, 19.530555555555555, N
7331, 20.363888888888887, N
7609, 21.136111111111113, N
7894, 21.927777777777777, N
8200, 22.77777777777778, N
8479, 23.552777777777777, N
8762, 24.33888888888889, N
9043, 25.119444444444444, N
9294, 25.816666666666666, N
9604, 26.677777777777777, N
9916, 27.544444444444444, N
10196, 28.322222222222223, N
10515, 29.208333333333332, N
10782, 29.95, N
11072, 30.755555555555556, N
11356, 31.544444444444444, N
11641, 32.33611111111111, N
11908, 33.077777777777776, N
12240, 34.0, N
12547, 34.852777777777774, N
12820, 35.611111111111114, N
13124, 36.455555555555556, N
13405, 37.236111111111114, N
13673, 37.980555555555554, N
13961, 38.78055555555556, N
14252, 39.58888888888889, N
14551, 40.419444444444444, N
14866, 41.294444444444444, N
15137, 42.047222222222224, N
15423, 42.84166666666667, N
15708, 43.63333333333333, N
15961, 44.33611111111111, N
16274, 45.205555555555556, N
16571, 46.03055555555556, N
16859, 46.830555555555556, N
17147, 47.63055555555555, N
17414, 48.37222222222222, N
17720, 49.22222222222222, N
17996, 49.98888888888889, N
18255, 50.708333333333336, N
18574, 51.59444444444444, N
18861, 52.391666666666666, N
19154, 53.205555555555556, N
19437, 53.99166666666667, N
19712, 54.75555555555555, N
20001, 55.55833333333333, N
20282, 56.33888888888889, N
20544, 57.06666666666667, N
20878, 57.99444444444445, N
21171, 58.80833333333333, N
21458, 59.605555555555554, N
21736, 60.37777777777778, N
22043, 61.230555555555554, N
22305, 61.958333333333336, N
22585, 62.736111111111114, N
22911, 63.641666666666666, N
23203, 64.45277777777778, N
23475, 65.20833333333333, N
23786, 66.07222222222222, N
24083, 66.89722222222223, N
24348, 67.63333333333334, N
24633, 68.425, N
24921, 69.225, N
25218, 70.05, N
25536, 70.93333333333334, N
25805, 71.68055555555556, N
26126, 72.57222222222222, N
26400, 73.33333333333333, N
26681, 74.1138888888889, N
26986, 74.96111111111111, N
27280, 75.77777777777777, N
27604, 76.67777777777778, N
27894, 77.48333333333333, N
28190, 78.30555555555556, N
28457, 79.04722222222222, N
28768, 79.91111111111111, N
29048, 80.68888888888888, N
29343, 81.50833333333334, N
29664, 82.4, N
29954, 83.20555555555555, N
30230, 83.97222222222223, N
30544, 84.84444444444445, N
30825, 85.625, N
31089, 86.35833333333333, N
31398, 87.21666666666667, N
31693, 88.03611111111111, N
31981, 88.83611111111111, N
32275, 89.65277777777777, N
32568, 90.46666666666667, N
32826, 91.18333333333334, N
33127, 92.01944444444445, N
33390, 92.75, N
33699, 93.60833333333333, N
33994, 94.42777777777778, N
34291, 95.25277777777778, N
34591, 96.08611111111111, N
34898, 96.93888888888888, N
35191, 97.75277777777778, N
35484, 98.56666666666666, N
35801, 99.44722222222222, N
36122, 100.33888888888889, N
36434, 101.20555555555555, N
36743, 102.06388888888888, N
37058, 102.93888888888888, N
37319, 103.66388888888889, N
37634, 104.53888888888889, N
37959, 105.44166666666666, N
38280, 106.33333333333333, N
38603, 107.23055555555555, N
38914, 108.09444444444445, N
39144, 108.73333333333333, ~
39221, 108.94722222222222, N
39524, 109.78888888888889, N
39818, 110.60555555555555, N
40139, 111.49722222222222, N
40405, 112.23611111111111, ~
40464, 112.4, N
40773, 113.25833333333334, N
41039, 113.99722222222222, N
41362, 114.89444444444445, N
41595, 115.54166666666667, ~
41665, 115.73611111111111, N
41943, 116.50833333333334, N
42095, 116.93055555555556, ~
42269, 117.41388888888889, N
42575, 118.26388888888889, N
42862, 119.06111111111112, N
43177, 119.93611111111112, N
43468, 120.74444444444444, N
43743, 121.50833333333334, N
44045, 122.34722222222223, N
44339, 123.16388888888889, N
44640, 124.0, N
44960, 124.88888888888889, N
45239, 125.66388888888889, N
45529, 126.46944444444445, N
45830, 127.30555555555556, N
46092, 128.03333333333333, N
46375, 128.81944444444446, N
46681, 129.66944444444445, N
46978, 130.49444444444444, N
47265, 131.29166666666666, N
47549, 132.08055555555555, N
47815, 132.81944444444446, N
48099, 133.60833333333332, N
48377, 134.38055555555556, N
48646, 135.12777777777777, N
48964, 136.01111111111112, N
49237, 136.76944444444445, N
49524, 137.56666666666666, N
49808, 138.35555555555555, N
50087, 139.13055555555556, N
50388, 139.96666666666667, N
50656, 140.7111111111111, N
50959, 141.55277777777778, N
51262, 142.39444444444445, N
51565, 143.23611111111111, N
51840, 144.0, N
52157, 144.88055555555556, N
52435, 145.65277777777777, N
52706, 146.40555555555557, N
53037, 147.325, N
53330, 148.13888888888889, N
53636, 148.98888888888888, N
53924, 149.7888888888889, N
54236, 150.65555555555557, N
54498, 151.38333333333333, N
54813, 152.25833333333333, N
55108, 153.07777777777778, N
55399, 153.88611111111112, N
55723, 154.7861111111111, N
56017, 155.6027777777778, N
56316, 156.43333333333334, N
56603, 157.23055555555555, N
56903, 158.0638888888889, N
57172, 158.8111111111111, N
57480, 159.66666666666666, N
57791, 160.53055555555557, N
58094, 161.37222222222223, N
58375, 162.15277777777777, N
58685, 163.01388888888889, N
58952, 163.75555555555556, N
59246, 164.57222222222222, N
59548, 165.4111111111111, N
59854, 166.26111111111112, N
60130, 167.02777777777777, N
60448, 167.9111111111111, N
60717, 168.65833333333333, N
61027, 169.51944444444445, N
61295, 170.26388888888889, N
61592, 171.0888888888889, N
61887, 171.90833333333333, N
62192, 172.75555555555556, N
62482, 173.5611111111111, N
62794, 174.42777777777778, N
63077, 175.2138888888889, N
63359, 175.99722222222223, N
63668, 176.85555555555555, N
63957, 177.65833333333333, N
64289, 178.58055555555555, N
64599, 179.44166666666666, N
64907, 180.29722222222222, N
65206, 181.12777777777777, N
65514, 181.98333333333332, N
65817, 182.825, N
66134, 183.70555555555555, N
66424, 184.51111111111112, N
66750, 185.41666666666666, N
67058, 186.2722222222222, N
67326, 187.01666666666668, N
67648, 187.9111111111111, N
67914, 188.65, N
68220, 189.5, N
68543, 190.3972222222222, N
68843, 191.23055555555555, N
69139, 192.05277777777778, N
69435, 192.875, N
69693, 193.59166666666667, N
70004, 194.45555555555555, N
70292, 195.25555555555556, N
70591, 196.0861111111111, N
70918, 196.99444444444444, N
71206, 197.79444444444445, N
71470, 198.52777777777777, N
71780, 199.38888888888889, N
72055, 200.15277777777777, N
72340, 200.94444444444446, N
72646, 201.79444444444445, N
72940, 202.61111111111111, N
73229, 203.4138888888889, N
73543, 204.2861111111111, N
73805, 205.01388888888889, N
74113, 205.86944444444444, N
74393, 206.6472222222222, N
74662, 207.39444444444445, N
75001, 208.3361111111111, N
75333, 209.25833333333333, N
75633, 210.09166666666667, N
75919, 210.88611111111112, N
76194, 211.65, N
76481, 212.44722222222222, N
76777, 213.26944444444445, N
77083, 214.11944444444444, N
77392, 214.9777777777778, N
77662, 215.7277777777778, N
77985, 216.625, N
78260, 217.38888888888889, N
78557, 218.2138888888889, N
78874, 219.09444444444443, N
79173, 219.925, N
79502, 220.8388888888889, N
79778, 221.60555555555555, N
80105, 222.51388888888889, N
80390, 223.30555555555554, N
80666, 224.07222222222222, N
80978, 224.9388888888889, N
81259, 225.71944444444443, N
81598, 226.6611111111111, N
81904, 227.51111111111112, N
82201, 228.3361111111111, N
82462, 229.0611111111111, N
82779, 229.94166666666666, N
83075, 230.76388888888889, N
83386, 231.62777777777777, N
83695, 232.48611111111111, N
84006, 233.35, N
84267, 234.075, N
84583, 234.95277777777778, N
84853, 235.70277777777778, N
85152, 236.53333333333333, N
85453, 237.36944444444444, N
85727, 238.13055555555556, N
86062, 239.0611111111111, N
86353, 239.86944444444444, N
86630, 240.63888888888889, N
86944, 241.51111111111112, N
87213, 242.25833333333333, N
87500, 243.05555555555554, N
87826, 243.9611111111111, N
88128, 244.8, N
88395, 245.54166666666666, N
88716, 246.43333333333334, N
89017, 247.26944444444445, N
89283, 248.00833333333333, N
89590, 248.86111111111111, N
89894, 249.70555555555555, N
90199, 250.55277777777778, N
90512, 251.42222222222222, N
90794, 252.20555555555555, N
91062, 252.95, N
91377, 253.825, N
91650, 254.58333333333334, N
91946, 255.40555555555557, N
92248, 256.24444444444447, N
92548, 257.0777777777778, N
92834, 257.8722222222222, N
93100, 258.6111111111111, N
93409, 259.46944444444443, N
93675, 260.2083333333333, N
93961, 261.0027777777778, N
94261, 261.8361111111111, N
94545, 262.625, N
94856, 263.4888888888889, N
95145, 264.2916666666667, N
95421, 265.05833333333334, N
95702, 265.8388888888889, N
95970, 266.5833333333333, N
96271, 267.4194444444444, N
96570, 268.25, N
96843, 269.0083333333333, N
97158, 269.8833333333333, N
97451, 270.6972222222222, N
97717, 271.43611111111113, N
98029, 272.3027777777778, N
98301, 273.05833333333334, N
98605, 273.90277777777777, N
98910, 274.75, N
99209, 275.5805555555556, N
99487, 276.35277777777776, N
99779, 277.1638888888889, N
100069, 277.96944444444443, N
100327, 278.68611111111113, N
100657, 279.60277777777776, N
100968, 280.46666666666664, N
101250, 281.25, N
101543, 282.06388888888887, N
101827, 282.85277777777776, N
102107, 283.63055555555553, N
102392, 284.4222222222222, N
102689, 285.2472222222222, N
102988, 286.0777777777778, N
103318, 286.99444444444447, N
103584, 287.73333333333335, N
103903, 288.61944444444447, N
104191, 289.4194444444444, N
104477, 290.2138888888889, N
104793, 291.09166666666664, N
105097, 291.93611111111113, N
105388, 292.74444444444447, N
105712, 293.64444444444445, N
106014, 294.48333333333335, N
106280, 295.22222222222223, N
106594, 296.09444444444443, N
106891, 296.9194444444444, N
107191, 297.7527777777778, N
107523, 298.675, N
107793, 299.425, N
108089, 300.2472222222222, N
108400, 301.1111111111111, N
108666, 301.85, N
108972, 302.7, N
109274, 303.5388888888889, N
109551, 304.30833333333334, N
109874, 305.2055555555556, N
110163, 306.0083333333333, N
110452, 306.81111111111113, N
110738, 307.60555555555555, N
110992, 308.31111111111113, N
111307, 309.18611111111113, N
111604, 310.0111111111111, N
111899, 310.8305555555556, N
112196, 311.65555555555557, N
112484, 312.4555555555556, N
112763, 313.23055555555555, N
113048, 314.02222222222224, N
113336, 314.8222222222222, N
113617, 315.60277777777776, N
113952, 316.53333333333336, N
114235, 317.31944444444446, N
114531, 318.14166666666665, N
114820, 318.94444444444446, N
115110, 319.75, N
115370, 320.47222222222223, N
115712, 321.4222222222222, N
116041, 322.3361111111111, N
116360, 323.22222222222223, N
116679, 324.10833333333335, N
116992, 324.97777777777776, N
117291, 325.80833333333334, N
117581, 326.6138888888889, N
117893, 327.48055555555555, N
118176, 328.26666666666665, N
118520, 329.22222222222223, N
118840, 330.1111111111111, N
119140, 330.94444444444446, N
119433, 331.7583333333333, N
119728, 332.5777777777778, N
120058, 333.49444444444447, N
120375, 334.375, N
120682, 335.22777777777776, N
120945, 335.9583333333333, N
121262, 336.8388888888889, N
121569, 337.69166666666666, N
121830, 338.4166666666667, N
122148, 339.3, N
122453, 340.14722222222224, N
122749, 340.96944444444443, N
123066, 341.85, N
123362, 342.6722222222222, N
123626, 343.40555555555557, N
123935, 344.2638888888889, N
124204, 345.0111111111111, N
124545, 345.9583333333333, N
124832, 346.75555555555553, N
125156, 347.65555555555557, N
125429, 348.4138888888889, N
125736, 349.26666666666665, N
126006, 350.01666666666665, N
126300, 350.8333333333333, N
126606, 351.68333333333334, N
126890, 352.47222222222223, N
127192, 353.31111111111113, N
127477, 354.10277777777776, N
127743, 354.84166666666664, N
128053, 355.7027777777778, N
128319, 356.44166666666666, N
128615, 357.2638888888889, N
128910, 358.0833333333333, N
129202, 358.89444444444445, N
129492, 359.7, N
129777, 360.4916666666667, N
130039, 361.21944444444443, N
130349, 362.0805555555556, N
130608, 362.8, N
130914, 363.65, N
131215, 364.4861111111111, N
131512, 365.31111111111113, N
131773, 366.0361111111111, N
132092, 366.9222222222222, N
132369, 367.69166666666666, N
132625, 368.40277777777777, N
132956, 369.3222222222222, N
133251, 370.14166666666665, N
133524, 370.9, N
133842, 371.78333333333336, N
134119, 372.5527777777778, N
134386, 373.2944444444444, N
134698, 374.1611111111111, N
134974, 374.9277777777778, N
135274, 375.7611111111111, N
135566, 376.5722222222222, N
135859, 377.3861111111111, N
136154, 378.2055555555556, N
136441, 379.0027777777778, N
136736, 379.8222222222222, N
136995, 380.5416666666667, N
137299, 381.3861111111111, N
137602, 382.22777777777776, N
137887, 383.01944444444445, N
138185, 383.84722222222223, N
138472, 384.64444444444445, N
138732, 385.3666666666667, N
139047, 386.2416666666667, N
139320, 387.0, N
139649, 387.9138888888889, N
139927, 388.68611111111113, N
140220, 389.5, N
140508, 390.3, N
140791, 391.0861111111111, N
141077, 391.88055555555553, N
141333, 392.59166666666664, N
141667, 393.51944444444445, N
141975, 394.375, N
142257, 395.15833333333336, N
142574, 396.0388888888889, N
142867, 396.85277777777776, N
143132, 397.5888888888889, N
143431, 398.4194444444444, N
143729, 399.2472222222222, N
144048, 400.1333333333333, N
144328, 400.9111111111111, N
144646, 401.7944444444444, N
144933, 402.59166666666664, N
145216, 403.3777777777778, N
145491, 404.14166666666665, N
145810, 405.02777777777777, N
146103, 405.84166666666664, N
146402, 406.6722222222222, N
146715, 407.5416666666667, N
146994, 408.31666666666666, N
147287, 409.13055555555553, N
147590, 409.97222222222223, N
147861, 410.725, N
148160, 411.55555555555554, N
148486, 412.4611111111111, N
148787, 413.2972222222222, N
149060, 414.05555555555554, N
149371, 414.9194444444444, N
149653, 415.7027777777778, N
149912, 416.4222222222222, N
150242, 417.3388888888889, N
150525, 418.125, N
150854, 419.0388888888889, N
151132, 419.81111111111113, N
151425, 420.625, N
151713, 421.425, N
151979, 422.1638888888889, N
152310, 423.0833333333333, N
152636, 423.9888888888889, N
152947, 424.85277777777776, N
153251, 425.6972222222222, N
153560, 426.55555555555554, N
153865, 427.40277777777777, N
154174, 428.2611111111111, N
154481, 429.1138888888889, N
154789, 429.96944444444443, N
155109, 430.85833333333335, N
155383, 431.61944444444447, N
155718, 432.55, N
156041, 433.4472222222222, N
156340, 434.27777777777777, N
156658, 435.1611111111111, N
156983, 436.06388888888887, N
157303, 436.9527777777778, N
157606, 437.7944444444444, N
157897, 438.60277777777776, N
158192, 439.4222222222222, N
158457, 440.15833333333336, N
158778, 441.05, N
159113, 441.98055555555555, N
159424, 442.84444444444443, N
159727, 443.68611111111113, N
160000, 444.44444444444446, N
160315, 445.31944444444446, N
160578, 446.05, N
160891, 446.9194444444444, N
161179, 447.71944444444443, N
161516, 448.65555555555557, N
161790, 449.4166666666667, N
162105, 450.2916666666667, N
162379, 451.0527777777778, N
162666, 451.85, N
162950, 452.6388888888889, N
163231, 453.4194444444444, N
163565, 454.34722222222223, N
163848, 455.1333333333333, N
164126, 455.90555555555557, N
164442, 456.78333333333336, N
164730, 457.5833333333333, N
165029, 458.4138888888889, N
165309, 459.19166666666666, N
165617, 460.0472222222222, N
165905, 460.84722222222223, N
166226, 461.7388888888889, N
166498, 462.49444444444447, N
166826, 463.40555555555557, N
167086, 464.1277777777778, N
167407, 465.01944444444445, N
167693, 465.81388888888887, N
168052, 466.81111111111113, N
168370, 467.69444444444446, N
168651, 468.475, N
168947, 469.2972222222222, N
169209, 470.025, N
169538, 470.93888888888887, N
169825, 471.7361111111111, N
170159, 472.6638888888889, N
170453, 473.48055555555555, N
170746, 474.2944444444444, N
171036, 475.1, N
171344, 475.9555555555556, N
171610, 476.69444444444446, N
171920, 477.55555555555554, N
172232, 478.4222222222222, N
172505, 479.18055555555554, N
172830, 480.0833333333333, N
173100, 480.8333333333333, N
173406, 481.68333333333334, N
173683, 482.4527777777778, N
173956, 483.2111111111111, N
174294, 484.15, N
174587, 484.9638888888889, N
174858, 485.71666666666664, N
175155, 486.5416666666667, N
175438, 487.3277777777778, N
175693, 488.0361111111111, N
176008, 488.9111111111111, N
176295, 489.7083333333333, N
176592, 490.53333333333336, N
176880, 491.3333333333333, N
177151, 492.0861111111111, N
177444, 492.9, N
177703, 493.61944444444447, N
177985, 494.40277777777777, N
178270, 495.19444444444446, N
178567, 496.01944444444445, N
178870, 496.8611111111111, N
179161, 497.6694444444444, N
179434, 498.4277777777778, N
179744, 499.2888888888889, N
180012, 500.03333333333336, N
180277, 500.76944444444445, N
180617, 501.7138888888889, N
180904, 502.5111111111111, N
181205, 503.34722222222223, N
181470, 504.0833333333333, N
181790, 504.97222222222223, N
182053, 505.7027777777778, N
182334, 506.48333333333335, N
182644, 507.34444444444443, N
182943, 508.175, N
183214, 508.9277777777778, N
183531, 509.80833333333334, N
183812, 510.5888888888889, N
184095, 511.375, N
184378, 512.1611111111112, N
184660, 512.9444444444445, N
184936, 513.7111111111111, N
185265, 514.625, N
185541, 515.3916666666667, N
185841, 516.225, N
186125, 517.0138888888889, N
186386, 517.7388888888889, N
186673, 518.5361111111112, N
186975, 519.375, N
187283, 520.2305555555556, N
187559, 520.9972222222223, N
187874, 521.8722222222223, N
188149, 522.6361111111111, N
188430, 523.4166666666666, N
188723, 524.2305555555556, N
188996, 524.9888888888889, N
189323, 525.8972222222222, N
189606, 526.6833333333333, N
189891, 527.475, N
190188, 528.3, N
190481, 529.1138888888889, N
190739, 529.8305555555555, N
191053, 530.7027777777778, N
191381, 531.6138888888889, N
191462, 531.8388888888888, ~
191694, 532.4833333333333, N
192000, 533.3333333333334, N
192163, 533.7861111111112, A
192545, 534.8472222222222, N
192786, 535.5166666666667, N
193204, 536.6777777777778, N
193398, 537.2166666666667, ~
193564, 537.6777777777778, N
193737, 538.1583333333333, A
194134, 539.2611111111111, N
194304, 539.7333333333333, A
194652, 540.7, N
194819, 541.1638888888889, A
195187, 542.1861111111111, N
195356, 542.6555555555556, A
195713, 543.6472222222222, N
195781, 543.8361111111111, +
195883, 544.1194444444444, N
196084, 544.6777777777778, N
196256, 545.1555555555556, N
196443, 545.675, N
196629, 546.1916666666667, N
196821, 546.725, N
196974, 547.15, N
197176, 547.7111111111111, +
197353, 548.2027777777778, j
197750, 549.3055555555555, j
198154, 550.4277777777778, j
198540, 551.5, j
198914, 552.5388888888889, j
199286, 553.5722222222222, j
199511, 554.1972222222222, +
199636, 554.5444444444445, N
199946, 555.4055555555556, N
200244, 556.2333333333333, N
200554, 557.0944444444444, N
200820, 557.8333333333334, N
201120, 558.6666666666666, N
201386, 559.4055555555556, N
201552, 559.8666666666667, A
201981, 561.0583333333333, N
202348, 562.0777777777778, N
202699, 563.0527777777778, N
203016, 563.9333333333333, N
203329, 564.8027777777778, N
203588, 565.5222222222222, N
203871, 566.3083333333333, N
204133, 567.0361111111112, N
204626, 568.4055555555556, N
204820, 568.9444444444445, A
205202, 570.0055555555556, N
205366, 570.4611111111111, A
205699, 571.3861111111111, N
205750, 571.5277777777778, +
205866, 571.85, N
206059, 572.3861111111111, N
206225, 572.8472222222222, N
206526, 573.6833333333333, N
206623, 573.9527777777778, +
206697, 574.1583333333333, N
206819, 574.4972222222223, N
206991, 574.975, N
207179, 575.4972222222223, N
207410, 576.1388888888889, N
207617, 576.7138888888888, N
207793, 577.2027777777778, N
207974, 577.7055555555555, N
208157, 578.2138888888888, N
208345, 578.7361111111111, N
208511, 579.1972222222222, N
208710, 579.75, N
208905, 580.2916666666666, N
209088, 580.8, N
209419, 581.7194444444444, N
209614, 582.2611111111111, N
209773, 582.7027777777778, N
209938, 583.1611111111112, N
210115, 583.6527777777778, N
210337, 584.2694444444444, +
210456, 584.6, N
210852, 585.7, N
211268, 586.8555555555556, N
211711, 588.0861111111111, N
212164, 589.3444444444444, N
212526, 590.35, N
212851, 591.2527777777777, N
213224, 592.2888888888889, N
213528, 593.1333333333333, N
213824, 593.9555555555555, N
214123, 594.7861111111112, N
214421, 595.6138888888889, N
214701, 596.3916666666667, N
215008, 597.2444444444444, N
215292, 598.0333333333333, N
215618, 598.9388888888889, N
215899, 599.7194444444444, N
216212, 600.5888888888888, N
216485, 601.3472222222222, N
216763, 602.1194444444444, N
217072, 602.9777777777778, N
217380, 603.8333333333334, N
217692, 604.7, N
217972, 605.4777777777778, N
218284, 606.3444444444444, N
218580, 607.1666666666666, N
218844, 607.9, N
219153, 608.7583333333333, N
219468, 609.6333333333333, N
219744, 610.4, N
220069, 611.3027777777778, N
220227, 611.7416666666667, A
220614, 612.8166666666667, N
220851, 613.475, A
221224, 614.5111111111111, N
221494, 615.2611111111111, N
221836, 616.2111111111111, N
222008, 616.6888888888889, A
222393, 617.7583333333333, N
222667, 618.5194444444444, +
222793, 618.8694444444444, N
222958, 619.3277777777778, A
223335, 620.375, j
223514, 620.8722222222223, A
223926, 622.0166666666667, N
224115, 622.5416666666666, A
224460, 623.5, N
224627, 623.9638888888888, A
225004, 625.0111111111111, N
225178, 625.4944444444444, A
225271, 625.7527777777777, +
225363, 626.0083333333333, N
225576, 626.6, N
225738, 627.05, N
225906, 627.5166666666667, N
226063, 627.9527777777778, N
226202, 628.3388888888888, N
226416, 628.9333333333333, N
226477, 629.1027777777778, +
226616, 629.4888888888889, N
226764, 629.9, N
226931, 630.3638888888889, N
227103, 630.8416666666667, N
227304, 631.4, N
227487, 631.9083333333333, N
227654, 632.3722222222223, N
227848, 632.9111111111112, N
228036, 633.4333333333333, N
228288, 634.1333333333333, N
228523, 634.7861111111112, N
228732, 635.3666666666667, N
229035, 636.2083333333334, N
229215, 636.7083333333334, N
229406, 637.2388888888889, N
229600, 637.7777777777778, N
229885, 638.5694444444445, N
230022, 638.95, +
230293, 639.7027777777778, j
230684, 640.7888888888889, j
231099, 641.9416666666667, j
231514, 643.0944444444444, j
231897, 644.1583333333333, j
232286, 645.2388888888889, j
232676, 646.3222222222222, j
233043, 647.3416666666667, j
233218, 647.8277777777778, +
233356, 648.2111111111111, N
233643, 649.0083333333333, N
233916, 649.7666666666667, N
234185, 650.5138888888889, N
234482, 651.3388888888888, N
234782, 652.1722222222222, N
235067, 652.9638888888888, N
235352, 653.7555555555556, N
235630, 654.5277777777778, N
235885, 655.2361111111111, N
236191, 656.0861111111111, N
236467, 656.8527777777778, N
236761, 657.6694444444445, N
237060, 658.5, N
237334, 659.2611111111111, N
237622, 660.0611111111111, N
237916, 660.8777777777777, N
238191, 661.6416666666667, N
238461, 662.3916666666667, N
238760, 663.2222222222222, N
239061, 664.0583333333333, N
239350, 664.8611111111111, N
239661, 665.725, N
239947, 666.5194444444444, N
240224, 667.2888888888889, N
240504, 668.0666666666667, N
240768, 668.8, N
241079, 669.6638888888889, N
241382, 670.5055555555556, N
241651, 671.2527777777777, N
241961, 672.1138888888889, N
242240, 672.8888888888889, N
242494, 673.5944444444444, N
242728, 674.2444444444444, +
242796, 674.4333333333333, N
242961, 674.8916666666667, A
243351, 675.975, N
243527, 676.4638888888888, A
243854, 677.3722222222223, N
244022, 677.8388888888888, A
244387, 678.8527777777778, N
244615, 679.4861111111111, A
244960, 680.4444444444445, N
245127, 680.9083333333333, A
245486, 681.9055555555556, N
245658, 682.3833333333333, A
246029, 683.4138888888889, N
246281, 684.1138888888889, A
246655, 685.1527777777778, N
246817, 685.6027777777778, A
247162, 686.5611111111111, N
247338, 687.05, A
247618, 687.8277777777778, +
247728, 688.1333333333333, N
248021, 688.9472222222222, N
248174, 689.3722222222223, A
248566, 690.4611111111111, N
248872, 691.3111111111111, N
249035, 691.7638888888889, A
249404, 692.7888888888889, N
249656, 693.4888888888889, N
249821, 693.9472222222222, A
250232, 695.0888888888888, N
250407, 695.575, A
250517, 695.8805555555556, +
250601, 696.1138888888889, N
250841, 696.7805555555556, N
251015, 697.2638888888889, N
251199, 697.775, N
251369, 698.2472222222223, N
251409, 698.3583333333333, +
251530, 698.6944444444445, N
251847, 699.575, N
252012, 700.0333333333333, N
252215, 700.5972222222222, N
252392, 701.0888888888888, N
252578, 701.6055555555556, N
252759, 702.1083333333333, N
252929, 702.5805555555555, N
253087, 703.0194444444444, N
253243, 703.4527777777778, N
253418, 703.9388888888889, N
253602, 704.45, N
253897, 705.2694444444444, +
253991, 705.5305555555556, N
254375, 706.5972222222222, j
254828, 707.8555555555556, j
255289, 709.1361111111111, N
255724, 710.3444444444444, j
256057, 711.2694444444444, +
256142, 711.5055555555556, N
256481, 712.4472222222222, N
256651, 712.9194444444445, A
257059, 714.0527777777778, N
257228, 714.5222222222222, A
257625, 715.625, N
257703, 715.8416666666667, +
257793, 716.0916666666667, A
257968, 716.5777777777778, A
258160, 717.1111111111111, A
258467, 717.9638888888888, +
258566, 718.2388888888889, N
258740, 718.7222222222222, A
259176, 719.9333333333333, N
259348, 720.4111111111112, A
259507, 720.8527777777778, +
259596, 721.1, N
259747, 721.5194444444444, N
259940, 722.0555555555555, N
260156, 722.6555555555556, N
260255, 722.9305555555555, +
260434, 723.4277777777778, N
260686, 724.1277777777777, N
260913, 724.7583333333333, N
261106, 725.2944444444445, N
261276, 725.7666666666667, N
261489, 726.3583333333333, N
261719, 726.9972222222223, N
261880, 727.4444444444445, N
262078, 727.9944444444444, N
262242, 728.45, N
262409, 728.9138888888889, N
262603, 729.4527777777778, N
262788, 729.9666666666667, N
262966, 730.4611111111111, N
263160, 731.0, N
263328, 731.4666666666667, N
263501, 731.9472222222222, N
263681, 732.4472222222222, N
263835, 732.875, N
264015, 733.375, N
264200, 733.8888888888889, N
264378, 734.3833333333333, N
264687, 735.2416666666667, N
264884, 735.7888888888889, N
265143, 736.5083333333333, N
265369, 737.1361111111111, N
265567, 737.6861111111111, N
265829, 738.4138888888889, +
265946, 738.7388888888889, N
266353, 739.8694444444444, N
266681, 740.7805555555556, +
266806, 741.1277777777777, j
267253, 742.3694444444444, j
267429, 742.8583333333333, A
267830, 743.9722222222222, N
268244, 745.1222222222223, j
268629, 746.1916666666667, j
269014, 747.2611111111111, j
269187, 747.7416666666667, A
269565, 748.7916666666666, j
269930, 749.8055555555555, j
270282, 750.7833333333333, N
270440, 751.2222222222222, A
270757, 752.1027777777778, j
270956, 752.6555555555556, A
271103, 753.0638888888889, A
271459, 754.0527777777778, N
271630, 754.5277777777778, A
271699, 754.7194444444444, +
271773, 754.925, N
271898, 755.2722222222222, N
272040, 755.6666666666666, N
272221, 756.1694444444445, N
272404, 756.6777777777778, N
272539, 757.0527777777778, N
272687, 757.4638888888888, N
272845, 757.9027777777778, N
273005, 758.3472222222222, N
273182, 758.8388888888888, N
273376, 759.3777777777777, N
273546, 759.85, N
273709, 760.3027777777778, +
274007, 761.1305555555556, j
274343, 762.0638888888889, j
274734, 763.15, j
275149, 764.3027777777778, j
275587, 765.5194444444444, j
276018, 766.7166666666667, j
276208, 767.2444444444444, A
276498, 768.05, N
276658, 768.4944444444444, A
277031, 769.5305555555556, j
277407, 770.575, j
277585, 771.0694444444445, A
277876, 771.8777777777777, +
277993, 772.2027777777778, N
278171, 772.6972222222222, N
278316, 773.1, N
278463, 773.5083333333333, N
278593, 773.8694444444444, N
278731, 774.2527777777777, N
278860, 774.6111111111111, N
279001, 775.0027777777777, N
279148, 775.4111111111112, N
279419, 776.1638888888889, +
279516, 776.4333333333333, j
279909, 777.525, j
280291, 778.5861111111111, j
280658, 779.6055555555556, j
280876, 780.2111111111111, +
280985, 780.5138888888889, N
281276, 781.3222222222222, N
281553, 782.0916666666667, N
281835, 782.875, N
282134, 783.7055555555555, N
282433, 784.5361111111112, N
282724, 785.3444444444444, N
283021, 786.1694444444445, N
283295, 786.9305555555555, N
283576, 787.7111111111111, N
283861, 788.5027777777777, N
284154, 789.3166666666667, N
284466, 790.1833333333333, N
284774, 791.0388888888889, N
285042, 791.7833333333333, N
285360, 792.6666666666666, N
285518, 793.1055555555556, A
285919, 794.2194444444444, N
286089, 794.6916666666667, A
286376, 795.4888888888889, j
286843, 796.7861111111112, j
287032, 797.3111111111111, A
287516, 798.6555555555556, j
287762, 799.3388888888888, A
288058, 800.1611111111112, j
288513, 801.425, N
288698, 801.9388888888889, A
288813, 802.2583333333333, +
288949, 802.6361111111111, N
289107, 803.075, N
289315, 803.6527777777778, N
289546, 804.2944444444445, N
289764, 804.9, N
289939, 805.3861111111111, N
290113, 805.8694444444444, N
290324, 806.4555555555555, N
290514, 806.9833333333333, N
290695, 807.4861111111111, N
290901, 808.0583333333333, +
291083, 808.5638888888889, j
291455, 809.5972222222222, j
291813, 810.5916666666667, j
292162, 811.5611111111111, j
292496, 812.4888888888889, j
292846, 813.4611111111111, j
293115, 814.2083333333334, +
293198, 814.4388888888889, N
293493, 815.2583333333333, N
293782, 816.0611111111111, N
294066, 816.85, N
294360, 817.6666666666666, N
294628, 818.4111111111112, N
294925, 819.2361111111111, N
295253, 820.1472222222222, N
295544, 820.9555555555555, N
295838, 821.7722222222222, N
296131, 822.5861111111111, N
296423, 823.3972222222222, N
296705, 824.1805555555555, N
297029, 825.0805555555555, N
297346, 825.9611111111111, N
297636, 826.7666666666667, N
297965, 827.6805555555555, N
298129, 828.1361111111111, A
298250, 828.4722222222222, +
298374, 828.8166666666667, N
298525, 829.2361111111111, N
298692, 829.7, N
298721, 829.7805555555556, +
298872, 830.2, N
299034, 830.65, N
299201, 831.1138888888889, N
299363, 831.5638888888889, N
299561, 832.1138888888889, N
299799, 832.775, +
300002, 833.3388888888888, j
300367, 834.3527777777778, j
300754, 835.4277777777778, j
301122, 836.45, j
301514, 837.5388888888889, j
301813, 838.3694444444444, +
301900, 838.6111111111111, N
302067, 839.075, A
302411, 840.0305555555556, j
302600, 840.5555555555555, A
302852, 841.2555555555556, N
303195, 842.2083333333334, j
303549, 843.1916666666667, j
303904, 844.1777777777778, j
304102, 844.7277777777778, A
304196, 844.9888888888889, +
304240, 845.1111111111111, N
304443, 845.675, N
304610, 846.1388888888889, N
304784, 846.6222222222223, N
304908, 846.9666666666667, +
305141, 847.6138888888889, j
305494, 848.5944444444444, j
305733, 849.2583333333333, +
305833, 849.5361111111112, N
306146, 850.4055555555556, N
306452, 851.2555555555556, N
306725, 852.0138888888889, N
307007, 852.7972222222222, N
307283, 853.5638888888889, N
307549, 854.3027777777778, N
307827, 855.075, N
308137, 855.9361111111111, N
308435, 856.7638888888889, N
308697, 857.4916666666667, N
309010, 858.3611111111111, N
309287, 859.1305555555556, N
309546, 859.85, N
309870, 860.75, N
310038, 861.2166666666667, A
310454, 862.3722222222223, j
310633, 862.8694444444444, A
310786, 863.2944444444445, A
311112, 864.2, N
311274, 864.65, A
311493, 865.2583333333333, A
311699, 865.8305555555555, J
312011, 866.6972222222222, N
312178, 867.1611111111112, A
312335, 867.5972222222222, +
312410, 867.8055555555555, N
312591, 868.3083333333333, N
312645, 868.4583333333334, +
312752, 868.7555555555556, N
312925, 869.2361111111111, N
313084, 869.6777777777778, N
313253, 870.1472222222222, N
313544, 870.9555555555555, +
313632, 871.2, j
313957, 872.1027777777778, j
314381, 873.2805555555556, j
314839, 874.5527777777778, N
315011, 875.0305555555556, A
315467, 876.2972222222222, j
315673, 876.8694444444444, A
315870, 877.4166666666666, A
316287, 878.575, N
316469, 879.0805555555555, A
316617, 879.4916666666667, +
316720, 879.7777777777778, N
316882, 880.2277777777778, N
317049, 880.6916666666667, +
317105, 880.8472222222222, N
317264, 881.2888888888889, N
317430, 881.75, N
317576, 882.1555555555556, N
317718, 882.55, N
317863, 882.9527777777778, N
318127, 883.6861111111111, N
318271, 884.0861111111111, N
318491, 884.6972222222222, N
318703, 885.2861111111112, N
318948, 885.9666666666667, N
319245, 886.7916666666666, +
319393, 887.2027777777778, j
319802, 888.3388888888888, j
320173, 889.3694444444444, j
320526, 890.35, j
320697, 890.825, A
321068, 891.8555555555556, j
321429, 892.8583333333333, j
321758, 893.7722222222222, N
322094, 894.7055555555555, j
322331, 895.3638888888889, +
322414, 895.5944444444444, N
322688, 896.3555555555556, N
322996, 897.2111111111111, N
323279, 897.9972222222223, N
323570, 898.8055555555555, N
323856, 899.6, N
324144, 900.4, N
324412, 901.1444444444444, N
324688, 901.9111111111112, N
324963, 902.675, N
325239, 903.4416666666667, N
325555, 904.3194444444445, N
325721, 904.7805555555556, A
326114, 905.8722222222223, N
326291, 906.3638888888889, A
326529, 907.025, j
326845, 907.9027777777778, N
326999, 908.3305555555555, A
327133, 908.7027777777778, +
327238, 908.9944444444444, N
327400, 909.4444444444445, N
327544, 909.8444444444444, N
327686, 910.2388888888889, N
327863, 910.7305555555556, +
327947, 910.9638888888888, N
328303, 911.9527777777778, N
328667, 912.9638888888888, N
328973, 913.8138888888889, N
329290, 914.6944444444445, N
329614, 915.5944444444444, N
329956, 916.5444444444445, N
330264, 917.4, N
330578, 918.2722222222222, N
330882, 919.1166666666667, N
331177, 919.9361111111111, N
331476, 920.7666666666667, N
331754, 921.5388888888889, N
331925, 922.0138888888889, A
332334, 923.15, N
332709, 924.1916666666667, N
332870, 924.6388888888889, A
333021, 925.0583333333333, +
333116, 925.3222222222222, N
333279, 925.775, N
333416, 926.1555555555556, N
333603, 926.675, N
333752, 927.0888888888888, N
333965, 927.6805555555555, N
334142, 928.1722222222222, N
334317, 928.6583333333333, N
334484, 929.1222222222223, N
334707, 929.7416666666667, N
334849, 930.1361111111111, N
335119, 930.8861111111111, N
335312, 931.4222222222222, N
335519, 931.9972222222223, N
335795, 932.7638888888889, N
335977, 933.2694444444444, N
336150, 933.75, N
336461, 934.6138888888889, N
336673, 935.2027777777778, N
336889, 935.8027777777778, N
337090, 936.3611111111111, N
337225, 936.7361111111111, +
337454, 937.3722222222223, j
337819, 938.3861111111111, j
338198, 939.4388888888889, j
338647, 940.6861111111111, j
339050, 941.8055555555555, j
339432, 942.8666666666667, j
339698, 943.6055555555556, +
339803, 943.8972222222222, N
340165, 944.9027777777778, N
340465, 945.7361111111111, N
340769, 946.5805555555555, N
341050, 947.3611111111111, N
341379, 948.275, N
341656, 949.0444444444445, N
341939, 949.8305555555555, N
342221, 950.6138888888889, N
342514, 951.4277777777778, N
342802, 952.2277777777778, N
343241, 953.4472222222222, N
343676, 954.6555555555556, j
344046, 955.6833333333333, N
344206, 956.1277777777777, A
344611, 957.2527777777777, j
344707, 957.5194444444444, +
344789, 957.7472222222223, N
344925, 958.125, N
345060, 958.5, +
345144, 958.7333333333333, N
345314, 959.2055555555555, N
345493, 959.7027777777778, N
345657, 960.1583333333333, N
345815, 960.5972222222222, N
345979, 961.0527777777778, N
346134, 961.4833333333333, N
346295, 961.9305555555555, N
346473, 962.425, N
346715, 963.0972222222222, N
346896, 963.6, N
347056, 964.0444444444445, +
347389, 964.9694444444444, j
347790, 966.0833333333334, j
348200, 967.2222222222222, j
348638, 968.4388888888889, N
348808, 968.9111111111112, A
348977, 969.3805555555556, +
349055, 969.5972222222222, N
349266, 970.1833333333333, N
349450, 970.6944444444445, N
349629, 971.1916666666667, N
349888, 971.9111111111112, N
350227, 972.8527777777778, N
350425, 973.4027777777778, N
350613, 973.925, N
350822, 974.5055555555556, N
350977, 974.9361111111111, N
351205, 975.5694444444445, N
351406, 976.1277777777777, N
351620, 976.7222222222222, N
351841, 977.3361111111111, N
352008, 977.8, N
352229, 978.4138888888889, N
352405, 978.9027777777778, N
352611, 979.475, N
352830, 980.0833333333334, N
352960, 980.4444444444445, +
353054, 980.7055555555555, N
353291, 981.3638888888889, N
353446, 981.7944444444445, N
353631, 982.3083333333333, N
353868, 982.9666666666667, N
354055, 983.4861111111111, N
354273, 984.0916666666667, N
354535, 984.8194444444445, N
354706, 985.2944444444445, N
354911, 985.8638888888889, N
355068, 986.3, N
355313, 986.9805555555556, N
355750, 988.1944444444445, N
356003, 988.8972222222222, N
356212, 989.4777777777778, N
356397, 989.9916666666667, N
356580, 990.5, +
356684, 990.7888888888889, N
356973, 991.5916666666667, N
357167, 992.1305555555556, N
357285, 992.4583333333334, +
357420, 992.8333333333334, N
357622, 993.3944444444444, N
357923, 994.2305555555556, N
358186, 994.9611111111111, N
358423, 995.6194444444444, N
358694, 996.3722222222223, N
358895, 996.9305555555555, N
359123, 997.5638888888889, N
359357, 998.2138888888888, N
359614, 998.9277777777778, N
359816, 999.4888888888889, N
360029, 1000.0805555555555, N
360337, 1000.9361111111111, N
360557, 1001.5472222222222, N
360743, 1002.0638888888889, N
360892, 1002.4777777777778, N
361040, 1002.8888888888889, N
361173, 1003.2583333333333, N
361382, 1003.8388888888888, N
361558, 1004.3277777777778, N
361824, 1005.0666666666667, N
362032, 1005.6444444444444, N
362204, 1006.1222222222223, N
362369, 1006.5805555555555, N
362519, 1006.9972222222223, N
362677, 1007.4361111111111, N
362769, 1007.6916666666667, +
362856, 1007.9333333333333, N
363078, 1008.55, N
363235, 1008.9861111111111, +
363332, 1009.2555555555556, N
363560, 1009.8888888888889, N
363827, 1010.6305555555556, N
363932, 1010.9222222222222, +
364092, 1011.3666666666667, N
364309, 1011.9694444444444, N
364469, 1012.4138888888889, N
364623, 1012.8416666666667, N
364761, 1013.225, N
364982, 1013.8388888888888, N
365299, 1014.7194444444444, N
365458, 1015.1611111111112, N
365680, 1015.7777777777778, N
365908, 1016.4111111111112, N
366095, 1016.9305555555555, N
366350, 1017.6388888888889, N
366542, 1018.1722222222222, N
366790, 1018.8611111111111, N
367000, 1019.4444444444445, N
367256, 1020.1555555555556, N
367543, 1020.9527777777778, N
367794, 1021.65, N
367965, 1022.125, N
368191, 1022.7527777777777, N
368389, 1023.3027777777778, N
368586, 1023.85, N
368812, 1024.4777777777779, N
369020, 1025.0555555555557, N
369318, 1025.8833333333334, N
369495, 1026.375, N
369638, 1026.7722222222221, N
369931, 1027.5861111111112, N
370088, 1028.0222222222221, N
370225, 1028.4027777777778, N
370521, 1029.225, N
370778, 1029.9388888888889, N
370936, 1030.3777777777777, N
371088, 1030.8, N
371258, 1031.2722222222221, N
371423, 1031.7305555555556, N
371569, 1032.1361111111112, N
371793, 1032.7583333333334, N
371971, 1033.2527777777777, N
372157, 1033.7694444444444, N
372372, 1034.3666666666666, N
372535, 1034.8194444444443, N
372682, 1035.2277777777779, N
372938, 1035.9388888888889, N
373093, 1036.3694444444445, N
373147, 1036.5194444444444, +
373356, 1037.1, N
373562, 1037.6722222222222, N
373752, 1038.2, N
373900, 1038.611111111111, N
374051, 1039.0305555555556, N
374314, 1039.7611111111112, N
374542, 1040.3944444444444, N
374783, 1041.0638888888889, N
375091, 1041.9194444444445, N
375314, 1042.5388888888888, +
375395, 1042.763888888889, N
375582, 1043.2833333333333, N
375784, 1043.8444444444444, +
375877, 1044.1027777777779, N
376098, 1044.7166666666667, N
376278, 1045.2166666666667, N
376492, 1045.8111111111111, N
376668, 1046.3, N
376811, 1046.6972222222223, N
376959, 1047.1083333333333, N
377301, 1048.0583333333334, N
377552, 1048.7555555555555, N
377717, 1049.213888888889, N
377990, 1049.9722222222222, N
378249, 1050.6916666666666, N
378485, 1051.3472222222222, N
378558, 1051.55, +
378629, 1051.7472222222223, N
378775, 1052.1527777777778, N
379044, 1052.9, N
379225, 1053.4027777777778, N
379397, 1053.8805555555555, N
379624, 1054.5111111111112, N
379983, 1055.5083333333334, N
380219, 1056.1638888888888, N
380455, 1056.8194444444443, N
380610, 1057.25, N
380822, 1057.838888888889, N
380961, 1058.225, N
381249, 1059.025, N
381538, 1059.8277777777778, N
381715, 1060.3194444444443, N
381865, 1060.736111111111, N
382052, 1061.2555555555555, N
382261, 1061.8361111111112, N
382424, 1062.2888888888888, N
382654, 1062.9277777777777, N
382698, 1063.05, +
382865, 1063.513888888889, N
383133, 1064.2583333333334, N
383394, 1064.9833333333333, N
383624, 1065.6222222222223, N
383777, 1066.0472222222222, N
383913, 1066.425, N
384111, 1066.975, N
384255, 1067.375, N
384404, 1067.7888888888888, N
384662, 1068.5055555555555, N
384922, 1069.2277777777779, N
385128, 1069.8, N
385282, 1070.2277777777779, N
385504, 1070.8444444444444, N
385672, 1071.3111111111111, N
385821, 1071.725, N
385975, 1072.1527777777778, N
386234, 1072.8722222222223, N
386410, 1073.361111111111, N
386642, 1074.0055555555555, N
386903, 1074.7305555555556, N
387105, 1075.2916666666667, N
387297, 1075.825, +
387558, 1076.55, j
388016, 1077.8222222222223, j
388209, 1078.3583333333333, A
388538, 1079.2722222222221, N
388938, 1080.3833333333334, j
389114, 1080.8722222222223, A
389525, 1082.013888888889, j
389690, 1082.4722222222222, A
390142, 1083.7277777777779, j
390317, 1084.213888888889, A
390751, 1085.4194444444445, j
391166, 1086.5722222222223, j
391543, 1087.6194444444445, j
391904, 1088.6222222222223, j
392062, 1089.0611111111111, A
392326, 1089.7944444444445, +
392428, 1090.0777777777778, N
392794, 1091.0944444444444, N
393063, 1091.8416666666667, N
393363, 1092.675, N
393629, 1093.4138888888888, N
393902, 1094.1722222222222, N
394188, 1094.9666666666667, N
394476, 1095.7666666666667, N
394782, 1096.6166666666666, N
395086, 1097.4611111111112, N
395366, 1098.2388888888888, N
395644, 1099.0111111111112, N
395950, 1099.861111111111, N
396224, 1100.6222222222223, N
396522, 1101.45, N
396830, 1102.3055555555557, N
397119, 1103.1083333333333, N
397411, 1103.9194444444445, N
397706, 1104.7388888888888, N
397956, 1105.4333333333334, N
398258, 1106.2722222222221, N
398536, 1107.0444444444445, N
398838, 1107.8833333333334, N
399133, 1108.7027777777778, N
399440, 1109.5555555555557, N
399720, 1110.3333333333333, N
400003, 1111.1194444444445, N
400264, 1111.8444444444444, N
400572, 1112.7, N
400860, 1113.5, N
401152, 1114.3111111111111, N
401453, 1115.1472222222221, N
401748, 1115.9666666666667, N
402017, 1116.713888888889, N
402325, 1117.5694444444443, N
402595, 1118.3194444444443, N
402898, 1119.161111111111, N
403170, 1119.9166666666667, N
403328, 1120.3555555555556, A
403766, 1121.5722222222223, j
403942, 1122.0611111111111, A
404322, 1123.1166666666666, N
404553, 1123.7583333333334, N
404891, 1124.6972222222223, N
405157, 1125.4361111111111, N
405312, 1125.8666666666666, A
405716, 1126.9888888888888, N
405972, 1127.7, N
406286, 1128.5722222222223, N
406578, 1129.3833333333334, N
406876, 1130.2111111111112, N
407027, 1130.6305555555555, A
407413, 1131.7027777777778, N
407587, 1132.1861111111111, A
407944, 1133.1777777777777, N
408262, 1134.0611111111111, N
408559, 1134.8861111111112, N
408856, 1135.7111111111112, N
409141, 1136.5027777777777, N
409457, 1137.3805555555555, N
409771, 1138.2527777777777, N
410084, 1139.1222222222223, N
410361, 1139.8916666666667, N
410666, 1140.7388888888888, N
410926, 1141.4611111111112, N
411231, 1142.3083333333334, N
411498, 1143.05, N
411982, 1144.3944444444444, N
412372, 1145.4777777777779, N
412537, 1145.9361111111111, A
412899, 1146.9416666666666, N
413216, 1147.8222222222223, N
413505, 1148.625, N
413668, 1149.0777777777778, A
414055, 1150.1527777777778, N
414303, 1150.8416666666667, N
414703, 1151.9527777777778, N
414970, 1152.6944444444443, +
415050, 1152.9166666666667, N
415205, 1153.3472222222222, A
415575, 1154.375, N
415748, 1154.8555555555556, A
416116, 1155.8777777777777, N
416297, 1156.3805555555555, A
416659, 1157.3861111111112, N
416827, 1157.8527777777779, A
417207, 1158.9083333333333, j
417432, 1159.5333333333333, A
417837, 1160.6583333333333, N
418113, 1161.425, A
418559, 1162.6638888888888, N
418738, 1163.161111111111, A
419093, 1164.1472222222221, N
419263, 1164.6194444444445, A
419634, 1165.65, N
419800, 1166.111111111111, A
420151, 1167.0861111111112, N
420325, 1167.5694444444443, A
420719, 1168.6638888888888, N
420889, 1169.1361111111112, A
421268, 1170.1888888888889, N
421440, 1170.6666666666667, A
421788, 1171.6333333333334, N
421947, 1172.075, A
422329, 1173.1361111111112, N
422508, 1173.6333333333334, A
422875, 1174.6527777777778, N
423048, 1175.1333333333334, A
423299, 1175.8305555555555, j
423715, 1176.986111111111, j
424106, 1178.0722222222223, j
424317, 1178.6583333333333, A
424480, 1179.111111111111, A
424830, 1180.0833333333333, N
425009, 1180.5805555555555, A
425348, 1181.5222222222221, N
425524, 1182.0111111111112, A
425886, 1183.0166666666667, j
426057, 1183.4916666666666, A
426399, 1184.4416666666666, N
426574, 1184.9277777777777, A
426935, 1185.9305555555557, j
427157, 1186.5472222222222, A
427515, 1187.5416666666667, j
427742, 1188.1722222222222, A
428082, 1189.1166666666666, j
428255, 1189.5972222222222, A
428574, 1190.4833333333333, j
428770, 1191.0277777777778, A
429120, 1192.0, j
429344, 1192.6222222222223, A
429490, 1193.0277777777778, A
429799, 1193.8861111111112, j
430003, 1194.4527777777778, A
430314, 1195.3166666666666, j
430526, 1195.9055555555556, A
430850, 1196.8055555555557, j
431050, 1197.361111111111, A
431396, 1198.3222222222223, j
431605, 1198.9027777777778, A
431945, 1199.8472222222222, j
432146, 1200.4055555555556, A
432479, 1201.3305555555555, j
432664, 1201.8444444444444, A
432990, 1202.75, j
433189, 1203.3027777777777, A
433333, 1203.7027777777778, A
433675, 1204.6527777777778, j
433884, 1205.2333333333333, A
434225, 1206.1805555555557, j
434393, 1206.6472222222221, A
434726, 1207.5722222222223, j
434909, 1208.0805555555555, A
435280, 1209.111111111111, j
435458, 1209.6055555555556, A
435849, 1210.6916666666666, N
436015, 1211.1527777777778, A
436379, 1212.1638888888888, N
436553, 1212.6472222222221, A
436896, 1213.6, N
437054, 1214.0388888888888, A
437422, 1215.0611111111111, N
437597, 1215.5472222222222, A
437972, 1216.588888888889, N
438141, 1217.0583333333334, A
438510, 1218.0833333333333, N
438676, 1218.5444444444445, A
439037, 1219.5472222222222, N
439196, 1219.9888888888888, A
439260, 1220.1666666666667, +
439312, 1220.3111111111111, N
439563, 1221.0083333333334, N
439732, 1221.4777777777779, N
439942, 1222.0611111111111, N
440127, 1222.575, N
440430, 1223.4166666666667, N
440599, 1223.8861111111112, N
440734, 1224.2611111111112, N
441004, 1225.0111111111112, N
441201, 1225.5583333333334, N
441360, 1226.0, N
441522, 1226.45, N
441699, 1226.9416666666666, N
441924, 1227.5666666666666, +
442080, 1228.0, j
442414, 1228.9277777777777, j
442798, 1229.9944444444445, j
443201, 1231.1138888888888, j
443603, 1232.2305555555556, j
444011, 1233.3638888888888, j
444234, 1233.9833333333333, A
444652, 1235.1444444444444, N
444824, 1235.6222222222223, A
445010, 1236.138888888889, A
445415, 1237.263888888889, N
445576, 1237.7111111111112, A
445768, 1238.2444444444445, A
446172, 1239.3666666666666, N
446341, 1239.8361111111112, A
446482, 1240.2277777777779, +
446602, 1240.5611111111111, N
446765, 1241.013888888889, N
446936, 1241.4888888888888, N
447084, 1241.9, N
447237, 1242.325, N
447399, 1242.775, N
447556, 1243.2111111111112, N
447708, 1243.6333333333334, N
447891, 1244.1416666666667, N
448146, 1244.85, +
448379, 1245.4972222222223, j
448740, 1246.5, j
449219, 1247.8305555555555, j
449559, 1248.775, +
449690, 1249.138888888889, N
449855, 1249.5972222222222, A
450046, 1250.1277777777777, A
450503, 1251.3972222222221, N
450683, 1251.8972222222221, A
450949, 1252.6361111111112, j
451355, 1253.763888888889, N
451526, 1254.2388888888888, A
451775, 1254.9305555555557, A
452151, 1255.975, N
452310, 1256.4166666666667, A
452489, 1256.9138888888888, +
452580, 1257.1666666666667, N
452775, 1257.7083333333333, N
452997, 1258.325, N
453151, 1258.7527777777777, N
453302, 1259.1722222222222, N
453452, 1259.588888888889, N
453693, 1260.2583333333334, N
453872, 1260.7555555555555, N
454021, 1261.1694444444445, N
454220, 1261.7222222222222, N
454371, 1262.1416666666667, N
454527, 1262.575, N
454696, 1263.0444444444445, N
454746, 1263.1833333333334, ~
454834, 1263.4277777777777, +
455156, 1264.3222222222223, j
455560, 1265.4444444444443, j
455983, 1266.6194444444445, j
456378, 1267.7166666666667, j
456755, 1268.763888888889, j
457138, 1269.8277777777778, j
457518, 1270.8833333333334, j
457717, 1271.4361111111111, A
458056, 1272.3777777777777, j
458261, 1272.9472222222223, A
458396, 1273.3222222222223, A
458598, 1273.8833333333334, A
458922, 1274.7833333333333, j
459263, 1275.7305555555556, j
459379, 1276.0527777777777, +
459480, 1276.3333333333333, N
459630, 1276.75, N
459770, 1277.138888888889, N
459953, 1277.6472222222221, N
460130, 1278.138888888889, N
460256, 1278.4888888888888, ~
460307, 1278.6305555555555, N
460494, 1279.15, N
460656, 1279.6, N
460826, 1280.0722222222223, N
460953, 1280.425, N
461107, 1280.8527777777779, N
461280, 1281.3333333333333, +
461330, 1281.4722222222222, j
461609, 1282.2472222222223, j
461913, 1283.0916666666667, j
461975, 1283.263888888889, ~
462241, 1284.0027777777777, j
462568, 1284.911111111111, j
462854, 1285.7055555555555, j
463000, 1286.111111111111, A
463151, 1286.5305555555556, A
463383, 1287.175, N
463623, 1287.8416666666667, N
463776, 1288.2666666666667, A
464031, 1288.975, N
464358, 1289.8833333333334, j
464679, 1290.775, j
464800, 1291.111111111111, +
464983, 1291.6194444444445, N
465255, 1292.375, N
465546, 1293.1833333333334, N
465830, 1293.9722222222222, N
466122, 1294.7833333333333, N
466208, 1295.0222222222221, +
466274, 1295.2055555555555, A
466404, 1295.5666666666666, A
466559, 1295.9972222222223, A
466731, 1296.475, A
466895, 1296.9305555555557, +
467040, 1297.3333333333333, j
467368, 1298.2444444444445, j
467704, 1299.1777777777777, j
468039, 1300.1083333333333, j
468338, 1300.9388888888889, N
468482, 1301.338888888889, A
468616, 1301.7111111111112, A
468726, 1302.0166666666667, ~
468962, 1302.6722222222222, j
469227, 1303.4083333333333, +
469272, 1303.5333333333333, N
469422, 1303.95, A
469540, 1304.2777777777778, A
469702, 1304.7277777777779, A
469853, 1305.1472222222221, +
469983, 1305.5083333333334, N
470272, 1306.3111111111111, N
470587, 1307.1861111111111, N
470858, 1307.9388888888889, N
471134, 1308.7055555555555, N
471410, 1309.4722222222222, N
471664, 1310.1777777777777, N
471955, 1310.986111111111, N
472118, 1311.4388888888889, A
472534, 1312.5944444444444, j
472703, 1313.0638888888889, A
472958, 1313.7722222222221, N
473116, 1314.2111111111112, A
473256, 1314.6, A
473624, 1315.6222222222223, N
473782, 1316.0611111111111, A
473965, 1316.5694444444443, A
474342, 1317.6166666666666, N
474511, 1318.0861111111112, A
474711, 1318.6416666666667, A
475093, 1319.7027777777778, j
475291, 1320.2527777777777, A
475666, 1321.2944444444445, j
475907, 1321.963888888889, A
476046, 1322.35, A
476344, 1323.1777777777777, +
476419, 1323.3861111111112, j
476603, 1323.8972222222221, A
476740, 1324.2777777777778, A
476923, 1324.786111111111, A
477102, 1325.2833333333333, A
477202, 1325.5611111111111, +
477411, 1326.1416666666667, N
477717, 1326.9916666666666, N
477994, 1327.7611111111112, N
478317, 1328.6583333333333, N
478478, 1329.1055555555556, A
478549, 1329.3027777777777, +
478623, 1329.5083333333334, N
478771, 1329.9194444444445, N
478959, 1330.4416666666666, N
479179, 1331.0527777777777, N
479312, 1331.4222222222222, N
479407, 1331.6861111111111, +
479479, 1331.8861111111112, N
479732, 1332.588888888889, N
479887, 1333.0194444444444, N
480041, 1333.4472222222223, N
480158, 1333.7722222222221, +
480349, 1334.3027777777777, j
480690, 1335.25, j
481064, 1336.2888888888888, j
481300, 1336.9444444444443, +
481409, 1337.2472222222223, N
481741, 1338.1694444444445, N
482097, 1339.1583333333333, N
482397, 1339.9916666666666, N
482546, 1340.4055555555556, A
482690, 1340.8055555555557, N
482830, 1341.1944444444443, N
482865, 1341.2916666666667, +
483015, 1341.7083333333333, N
483224, 1342.2888888888888, N
483478, 1342.9944444444445, N
483648, 1343.4666666666667, N
483833, 1343.9805555555556, N
484009, 1344.4694444444444, N
484161, 1344.8916666666667, N
484322, 1345.338888888889, N
484476, 1345.7666666666667, N
484568, 1346.0222222222221, +
484831, 1346.7527777777777, N
485185, 1347.736111111111, j
485593, 1348.8694444444445, j
485942, 1349.838888888889, N
486383, 1351.0638888888889, N
486815, 1352.263888888889, N
486979, 1352.7194444444444, A
487405, 1353.9027777777778, j
487589, 1354.4138888888888, A
487900, 1355.2777777777778, N
488062, 1355.7277777777779, A
488178, 1356.05, +
488284, 1356.3444444444444, N
488452, 1356.8111111111111, N
488618, 1357.2722222222221, N
488769, 1357.6916666666666, N
488910, 1358.0833333333333, N
489200, 1358.888888888889, N
489471, 1359.6416666666667, N
489664, 1360.1777777777777, N
489819, 1360.6083333333333, N
489990, 1361.0833333333333, N
490090, 1361.361111111111, ~
490136, 1361.4888888888888, +
490415, 1362.263888888889, j
490738, 1363.161111111111, j
491111, 1364.1972222222223, j
491234, 1364.5388888888888, ~
491567, 1365.463888888889, j
492024, 1366.7333333333333, j
492435, 1367.875, N
492604, 1368.3444444444444, A
492978, 1369.3833333333334, j
493145, 1369.8472222222222, A
493416, 1370.6, N
493581, 1371.0583333333334, A
493713, 1371.425, +
493847, 1371.7972222222222, N
494044, 1372.3444444444444, N
494228, 1372.8555555555556, N
494322, 1373.1166666666666, +
494375, 1373.263888888889, N
494603, 1373.8972222222221, N
494818, 1374.4944444444445, N
494988, 1374.9666666666667, N
495179, 1375.4972222222223, N
495342, 1375.95, N
495540, 1376.5, N
495684, 1376.9, N
495815, 1377.263888888889, +
496060, 1377.9444444444443, j
496426, 1378.9611111111112, j
496710, 1379.75, +
496782, 1379.95, N
497219, 1381.1638888888888, N
497668, 1382.411111111111, N
498048, 1383.4666666666667, N
498217, 1383.9361111111111, A
498369, 1384.3583333333333, +
498442, 1384.5611111111111, N
498605, 1385.013888888889, N
498760, 1385.4444444444443, N
498922, 1385.8944444444444, N
499087, 1386.3527777777779, N
499245, 1386.7916666666667, N
499472, 1387.4222222222222, N
499679, 1387.9972222222223, N
499849, 1388.4694444444444, N
500008, 1388.911111111111, +
500248, 1389.5777777777778, N
500631, 1390.6416666666667, j
501101, 1391.9472222222223, N
501550, 1393.1944444444443, N
501912, 1394.2, N
502243, 1395.1194444444445, N
502619, 1396.1638888888888, N
502784, 1396.6222222222223, A
503197, 1397.7694444444444, N
503559, 1398.775, N
503718, 1399.2166666666667, A
503841, 1399.5583333333334, +
503958, 1399.8833333333334, N
504101, 1400.2805555555556, N
504300, 1400.8333333333333, N
504452, 1401.2555555555555, N
504620, 1401.7222222222222, +
504873, 1402.425, N
505204, 1403.3444444444444, N
505525, 1404.236111111111, N
505827, 1405.075, N
506120, 1405.888888888889, N
506419, 1406.7194444444444, N
506725, 1407.5694444444443, N
507025, 1408.4027777777778, N
507300, 1409.1666666666667, N
507613, 1410.036111111111, N
507766, 1410.4611111111112, A
508154, 1411.5388888888888, j
508540, 1412.611111111111, N
508712, 1413.088888888889, A
508782, 1413.2833333333333, +
508962, 1413.7833333333333, N
509120, 1414.2222222222222, N
509317, 1414.7694444444444, N
509499, 1415.275, N
509681, 1415.7805555555556, N
509894, 1416.3722222222223, N
510017, 1416.713888888889, +
510246, 1417.35, j
510602, 1418.338888888889, j
510806, 1418.9055555555556, +
510986, 1419.4055555555556, N
511284, 1420.2333333333333, N
511578, 1421.05, N
511880, 1421.888888888889, N
512165, 1422.6805555555557, N
512439, 1423.4416666666666, N
512706, 1424.1833333333334, N
513017, 1425.0472222222222, N
513321, 1425.8916666666667, N
513601, 1426.6694444444445, N
513921, 1427.5583333333334, N
514079, 1427.9972222222223, A
514335, 1428.7083333333333, A
514825, 1430.0694444444443, N
515089, 1430.8027777777777, A
515531, 1432.0305555555556, N
515708, 1432.5222222222221, A
515959, 1433.2194444444444, j
516386, 1434.4055555555556, j
516741, 1435.3916666666667, N
516898, 1435.8277777777778, A
516993, 1436.0916666666667, +
517111, 1436.4194444444445, N
517268, 1436.8555555555556, N
517473, 1437.425, N
517574, 1437.7055555555555, +
517702, 1438.0611111111111, j
518013, 1438.925, N
518433, 1440.0916666666667, j
518845, 1441.236111111111, j
519021, 1441.725, A
519278, 1442.4388888888889, j
519720, 1443.6666666666667, j
520148, 1444.8555555555556, j
520257, 1445.1583333333333, +
520352, 1445.4222222222222, N
520504, 1445.8444444444444, N
520662, 1446.2833333333333, N
520853, 1446.8138888888889, +
521023, 1447.286111111111, N
521423, 1448.3972222222221, j
521610, 1448.9166666666667, A
521815, 1449.486111111111, A
522222, 1450.6166666666666, N
522393, 1451.0916666666667, A
522494, 1451.3722222222223, +
522575, 1451.5972222222222, N
522799, 1452.2194444444444, N
522964, 1452.6777777777777, N
523109, 1453.0805555555555, N
523253, 1453.4805555555556, N
523397, 1453.8805555555555, N
523629, 1454.525, N
523776, 1454.9333333333334, +
524122, 1455.8944444444444, j
524587, 1457.1861111111111, j
525021, 1458.3916666666667, j
525415, 1459.486111111111, j
525620, 1460.0555555555557, A
525772, 1460.4777777777779, A
526146, 1461.5166666666667, N
526324, 1462.0111111111112, A
526718, 1463.1055555555556, j
526850, 1463.4722222222222, +
526948, 1463.7444444444445, N
527100, 1464.1666666666667, N
527301, 1464.725, N
527468, 1465.1888888888889, N
527675, 1465.763888888889, N
527809, 1466.1361111111112, N
527966, 1466.5722222222223, N
528104, 1466.9555555555555, N
528368, 1467.6888888888889, N
528572, 1468.2555555555555, +
528782, 1468.838888888889, N
529174, 1469.9277777777777, j
529338, 1470.3833333333334, A
529429, 1470.6361111111112, +
529591, 1471.0861111111112, N
529740, 1471.5, N
529927, 1472.0194444444444, N
530119, 1472.5527777777777, +
530372, 1473.2555555555555, j
530794, 1474.4277777777777, j
531216, 1475.6, j
531602, 1476.6722222222222, j
531975, 1477.7083333333333, j
532335, 1478.7083333333333, j
532677, 1479.6583333333333, N
532843, 1480.1194444444445, A
532908, 1480.3, +
532979, 1480.4972222222223, N
533168, 1481.0222222222221, N
533364, 1481.5666666666666, N
533531, 1482.0305555555556, N
533728, 1482.5777777777778, N
533901, 1483.0583333333334, N
534060, 1483.5, N
534237, 1483.9916666666666, N
534433, 1484.536111111111, N
534527, 1484.7972222222222, ~
534612, 1485.0333333333333, N
534772, 1485.4777777777779, +
534930, 1485.9166666666667, j
535282, 1486.8944444444444, j
535654, 1487.9277777777777, j
535755, 1488.2083333333333, ~
535805, 1488.3472222222222, +
535987, 1488.8527777777779, N
536316, 1489.7666666666667, N
536616, 1490.6, N
536921, 1491.4472222222223, N
537229, 1492.3027777777777, N
537458, 1492.9388888888889, ~
537521, 1493.1138888888888, N
537862, 1494.0611111111111, N
538137, 1494.825, N
538420, 1495.611111111111, N
538696, 1496.3777777777777, N
538990, 1497.1944444444443, N
539153, 1497.6472222222221, A
539283, 1498.0083333333334, A
539384, 1498.2888888888888, +
539457, 1498.4916666666666, N
539595, 1498.875, N
539727, 1499.2416666666666, N
539926, 1499.7944444444445, N
540159, 1500.4416666666666, N
540344, 1500.9555555555555, N
540512, 1501.4222222222222, N
540739, 1502.0527777777777, N
540908, 1502.5222222222221, N
541048, 1502.911111111111, N
541241, 1503.4472222222223, N
541387, 1503.8527777777779, N
541608, 1504.4666666666667, N
541817, 1505.0472222222222, N
541976, 1505.4888888888888, N
542278, 1506.3277777777778, N
542452, 1506.8111111111111, N
542651, 1507.3638888888888, N
542853, 1507.925, N
542981, 1508.2805555555556, N
543101, 1508.6138888888888, +
543341, 1509.2805555555556, j
543713, 1510.3138888888889, j
544063, 1511.286111111111, j
544409, 1512.2472222222223, j
544605, 1512.7916666666667, +
544740, 1513.1666666666667, N
545012, 1513.9222222222222, N
545286, 1514.6833333333334, N
545569, 1515.4694444444444, N
545848, 1516.2444444444445, N
546126, 1517.0166666666667, N
546397, 1517.7694444444444, N
546662, 1518.5055555555555, N
546917, 1519.213888888889, N
547181, 1519.9472222222223, N
547438, 1520.661111111111, N
547721, 1521.4472222222223, N
547996, 1522.2111111111112, N
548281, 1523.0027777777777, N
548556, 1523.7666666666667, N
548829, 1524.525, N
549093, 1525.2583333333334, N
549355, 1525.986111111111, N
549637, 1526.7694444444444, N
549928, 1527.5777777777778, N
550212, 1528.3666666666666, N
550498, 1529.161111111111, N
550778, 1529.9388888888889, N
551032, 1530.6444444444444, N
551340, 1531.5, N
551610, 1532.25, N
551883, 1533.0083333333334, N
552184, 1533.8444444444444, N
552475, 1534.6527777777778, N
552628, 1535.0777777777778, A
552709, 1535.3027777777777, +
552875, 1535.763888888889, N
553029, 1536.1916666666666, N
553170, 1536.5833333333333, N
553325, 1537.013888888889, N
553490, 1537.4722222222222, N
553679, 1537.9972222222223, N
553831, 1538.4194444444445, N
553988, 1538.8555555555556, N
554178, 1539.3833333333334, N
554375, 1539.9305555555557, N
554542, 1540.3944444444444, N
554723, 1540.8972222222221, N
554858, 1541.2722222222221, N
555012, 1541.7, N
555169, 1542.1361111111112, N
555326, 1542.5722222222223, N
555487, 1543.0194444444444, N
555652, 1543.4777777777779, N
555860, 1544.0555555555557, N
556102, 1544.7277777777779, N
556284, 1545.2333333333333, N
556499, 1545.8305555555555, +
556760, 1546.5555555555557, j
557094, 1547.4833333333333, j
557504, 1548.6222222222223, j
557962, 1549.8944444444444, j
558413, 1551.1472222222221, j
558688, 1551.911111111111, +
558812, 1552.2555555555555, N
559149, 1553.1916666666666, N
559497, 1554.1583333333333, N
559778, 1554.9388888888889, N
560049, 1555.6916666666666, N
560313, 1556.425, N
560604, 1557.2333333333333, N
560891, 1558.0305555555556, N
561207, 1558.9083333333333, N
561506, 1559.7388888888888, N
561768, 1560.4666666666667, N
562053, 1561.2583333333334, N
562339, 1562.0527777777777, N
562625, 1562.8472222222222, N
562928, 1563.6888888888889, N
563234, 1564.5388888888888, N
563521, 1565.3361111111112, N
563794, 1566.0944444444444, N
564110, 1566.9722222222222, N
564391, 1567.7527777777777, N
564671, 1568.5305555555556, N
564978, 1569.3833333333334, N
565137, 1569.825, A
565269, 1570.1916666666666, +
565356, 1570.4333333333334, N
565525, 1570.9027777777778, N
565679, 1571.3305555555555, N
565852, 1571.8111111111111, N
566000, 1572.2222222222222, N
566146, 1572.6277777777777, N
566289, 1573.025, N
566450, 1573.4722222222222, N
566596, 1573.8777777777777, N
566755, 1574.3194444444443, N
566916, 1574.7666666666667, N
567078, 1575.2166666666667, N
567244, 1575.6777777777777, N
567413, 1576.1472222222221, N
567592, 1576.6444444444444, N
567752, 1577.088888888889, N
567874, 1577.4277777777777, +
567941, 1577.6138888888888, j
568254, 1578.4833333333333, j
568661, 1579.6138888888888, j
569109, 1580.8583333333333, j
569591, 1582.1972222222223, N
570044, 1583.4555555555555, j
570294, 1584.15, +
570427, 1584.5194444444444, N
570746, 1585.4055555555556, N
570901, 1585.8361111111112, A
571025, 1586.1805555555557, +
571102, 1586.3944444444444, N
571274, 1586.8722222222223, N
571417, 1587.2694444444444, N
571628, 1587.8555555555556, N
571803, 1588.3416666666667, +
572054, 1589.0388888888888, j
572454, 1590.15, j
572834, 1591.2055555555555, j
573201, 1592.225, j
573575, 1593.263888888889, j
573945, 1594.2916666666667, N
574253, 1595.1472222222221, N
574405, 1595.5694444444443, A
574547, 1595.963888888889, A
574892, 1596.9222222222222, N
575191, 1597.7527777777777, N
575339, 1598.1638888888888, A
575390, 1598.3055555555557, +
575470, 1598.5277777777778, N
575610, 1598.9166666666667, N
575778, 1599.3833333333334, N
575984, 1599.9555555555555, N
576179, 1600.4972222222223, N
576406, 1601.1277777777777, N
576554, 1601.5388888888888, N
576764, 1602.1222222222223, N
577025, 1602.8472222222222, N
577226, 1603.4055555555556, N
577403, 1603.8972222222221, N
577534, 1604.2611111111112, N
577688, 1604.6888888888889, N
577948, 1605.411111111111, N
578166, 1606.0166666666667, N
578333, 1606.4805555555556, +
578481, 1606.8916666666667, N
578626, 1607.2944444444445, N
578755, 1607.6527777777778, N
578898, 1608.05, N
579040, 1608.4444444444443, N
579185, 1608.8472222222222, N
579349, 1609.3027777777777, N
579585, 1609.9583333333333, N
579766, 1610.4611111111112, N
579935, 1610.9305555555557, N
580132, 1611.4777777777779, N
580381, 1612.1694444444445, N
580580, 1612.7222222222222, N
580737, 1613.1583333333333, N
580884, 1613.5666666666666, N
581033, 1613.9805555555556, N
581232, 1614.5333333333333, N
581466, 1615.1833333333334, N
581671, 1615.7527777777777, N
581853, 1616.2583333333334, N
582066, 1616.85, N
582300, 1617.5, N
582599, 1618.3305555555555, N
582845, 1619.013888888889, N
582985, 1619.4027777777778, N
583219, 1620.0527777777777, N
583422, 1620.6166666666666, N
583656, 1621.2666666666667, N
583789, 1621.6361111111112, +
583916, 1621.9888888888888, N
584113, 1622.536111111111, N
584297, 1623.0472222222222, N
584581, 1623.8361111111112, N
584785, 1624.4027777777778, N
584890, 1624.6944444444443, +
585000, 1625.0, N
585212, 1625.588888888889, N
585431, 1626.1972222222223, N
585692, 1626.9222222222222, N
585862, 1627.3944444444444, N
586119, 1628.1083333333333, N
586310, 1628.638888888889, N
586562, 1629.338888888889, N
586932, 1630.3666666666666, N
587117, 1630.8805555555555, N
587254, 1631.2611111111112, N
587390, 1631.638888888889, N
587608, 1632.2444444444445, N
587820, 1632.8333333333333, N
588072, 1633.5333333333333, N
588360, 1634.3333333333333, N
588594, 1634.9833333333333, N
588846, 1635.6833333333334, N
589009, 1636.1361111111112, N
589239, 1636.775, N
589458, 1637.3833333333334, N
589709, 1638.0805555555555, N
589942, 1638.7277777777779, N
590105, 1639.1805555555557, N
590283, 1639.675, N
590456, 1640.1555555555556, N
590704, 1640.8444444444444, N
590964, 1641.5666666666666, N
591184, 1642.1777777777777, N
591373, 1642.7027777777778, N
591628, 1643.411111111111, N
591890, 1644.138888888889, N
592225, 1645.0694444444443, N
592461, 1645.725, N
592619, 1646.1638888888888, N
592779, 1646.6083333333333, N
593083, 1647.4527777777778, N
593300, 1648.0555555555557, N
593442, 1648.45, N
593573, 1648.8138888888889, N
593702, 1649.1722222222222, N
593953, 1649.8694444444445, N
594206, 1650.5722222222223, N
594349, 1650.9694444444444, N
594550, 1651.5277777777778, N
594766, 1652.1277777777777, N
594940, 1652.611111111111, N
595096, 1653.0444444444445, N
595252, 1653.4777777777779, N
595365, 1653.7916666666667, +
595417, 1653.9361111111111, N
595650, 1654.5833333333333, N
595829, 1655.0805555555555, N
596050, 1655.6944444444443, N
596263, 1656.286111111111, N
596489, 1656.9138888888888, N
596606, 1657.2388888888888, +
596737, 1657.6027777777779, N
596915, 1658.0972222222222, N
597079, 1658.5527777777777, N
597272, 1659.088888888889, N
597431, 1659.5305555555556, N
597599, 1659.9972222222223, +
597713, 1660.3138888888889, N
597904, 1660.8444444444444, N
598044, 1661.2333333333333, N
598210, 1661.6944444444443, N
598505, 1662.513888888889, N
598542, 1662.6166666666666, +
598788, 1663.3, N
599022, 1663.95, N
599197, 1664.4361111111111, N
599471, 1665.1972222222223, N
599629, 1665.6361111111112, N
599883, 1666.3416666666667, N
600090, 1666.9166666666667, N
600268, 1667.411111111111, N
600569, 1668.2472222222223, N
600862, 1669.0611111111111, N
601064, 1669.6222222222223, N
601197, 1669.9916666666666, N
601480, 1670.7777777777778, N
601730, 1671.4722222222222, N
601946, 1672.0722222222223, N
602242, 1672.8944444444444, N
602419, 1673.3861111111112, N
602694, 1674.15, N
602922, 1674.7833333333333, N
603088, 1675.2444444444445, N
603317, 1675.8805555555555, N
603465, 1676.2916666666667, N
603729, 1677.025, N
603909, 1677.525, N
604104, 1678.0666666666666, N
604398, 1678.8833333333334, N
604702, 1679.7277777777779, N
604899, 1680.275, N
605072, 1680.7555555555555, N
605373, 1681.5916666666667, N
605536, 1682.0444444444445, N
605746, 1682.6277777777777, N
605957, 1683.213888888889, N
606155, 1683.763888888889, N
606314, 1684.2055555555555, N
606596, 1684.9888888888888, N
606773, 1685.4805555555556, N
607031, 1686.1972222222223, N
607228, 1686.7444444444445, N
607431, 1687.3083333333334, N
607644, 1687.9, N
607890, 1688.5833333333333, N
608089, 1689.1361111111112, N
608258, 1689.6055555555556, N
608538, 1690.3833333333334, N
608723, 1690.8972222222221, N
608882, 1691.338888888889, N
609036, 1691.7666666666667, N
609271, 1692.4194444444445, N
609519, 1693.1083333333333, N
609801, 1693.8916666666667, N
609988, 1694.411111111111, N
610150, 1694.861111111111, N
610345, 1695.4027777777778, N
610603, 1696.1194444444445, N
610813, 1696.7027777777778, N
611055, 1697.375, N
611342, 1698.1722222222222, N
611502, 1698.6166666666666, N
611704, 1699.1777777777777, N
611930, 1699.8055555555557, N
612082, 1700.2277777777779, N
612234, 1700.65, N
612520, 1701.4444444444443, N
612766, 1702.1277777777777, N
612922, 1702.5611111111111, N
613219, 1703.3861111111112, N
613436, 1703.9888888888888, N
613576, 1704.3777777777777, N
613798, 1704.9944444444445, N
613964, 1705.4555555555555, N
614181, 1706.0583333333334, N
614406, 1706.6833333333334, N
614615, 1707.263888888889, N
614872, 1707.9777777777779, N
615042, 1708.45, N
615299, 1709.1638888888888, N
615454, 1709.5944444444444, N
615651, 1710.1416666666667, N
615790, 1710.5277777777778, N
615920, 1710.888888888889, N
616117, 1711.4361111111111, N
616418, 1712.2722222222221, N
616701, 1713.0583333333334, N
616988, 1713.8555555555556, N
617305, 1714.736111111111, N
617515, 1715.3194444444443, N
617773, 1716.036111111111, N
617947, 1716.5194444444444, N
618098, 1716.9388888888889, N
618352, 1717.6444444444444, N
618524, 1718.1222222222223, N
618672, 1718.5333333333333, N
618815, 1718.9305555555557, N
619043, 1719.5638888888889, N
619341, 1720.3916666666667, N
619511, 1720.8638888888888, N
619747, 1721.5194444444444, N
619935, 1722.0416666666667, N
620080, 1722.4444444444443, N
620288, 1723.0222222222221, N
620512, 1723.6444444444444, N
620667, 1724.075, N
620949, 1724.8583333333333, N
621113, 1725.3138888888889, N
621401, 1726.1138888888888, N
621584, 1726.6222222222223, N
621757, 1727.1027777777779, N
621898, 1727.4944444444445, N
622095, 1728.0416666666667, N
622267, 1728.5194444444444, N
622524, 1729.2333333333333, N
622769, 1729.9138888888888, N
623035, 1730.6527777777778, N
623265, 1731.2916666666667, N
623498, 1731.9388888888889, N
623815, 1732.8194444444443, N
623984, 1733.2888888888888, N
624218, 1733.9388888888889, N
624444, 1734.5666666666666, N
624589, 1734.9694444444444, N
624839, 1735.6638888888888, N
625130, 1736.4722222222222, N
625349, 1737.0805555555555, N
625493, 1737.4805555555556, N
625751, 1738.1972222222223, N
625920, 1738.6666666666667, N
626207, 1739.463888888889, N
626355, 1739.875, N
626494, 1740.2611111111112, N
626718, 1740.8833333333334, N
626958, 1741.55, N
627290, 1742.4722222222222, N
627524, 1743.1222222222223, N
627750, 1743.75, N
627950, 1744.3055555555557, N
628154, 1744.8722222222223, N
628425, 1745.625, N
628682, 1746.338888888889, N
628872, 1746.8666666666666, N
629106, 1747.5166666666667, N
629411, 1748.3638888888888, N
629606, 1748.9055555555556, N
629757, 1749.325, N
629892, 1749.7, N
630172, 1750.4777777777779, N
630410, 1751.138888888889, N
630623, 1751.7305555555556, N
630883, 1752.4527777777778, N
631187, 1753.2972222222222, N
631406, 1753.9055555555556, N
631646, 1754.5722222222223, N
631823, 1755.0638888888889, N
631972, 1755.4777777777779, N
632225, 1756.1805555555557, N
632453, 1756.8138888888889, N
632638, 1757.3277777777778, N
632909, 1758.0805555555555, N
633135, 1758.7083333333333, N
633361, 1759.3361111111112, N
633534, 1759.8166666666666, N
633797, 1760.5472222222222, N
634089, 1761.3583333333333, N
634337, 1762.0472222222222, N
634511, 1762.5305555555556, N
634742, 1763.1722222222222, N
634896, 1763.6, N
635209, 1764.4694444444444, N
635387, 1764.963888888889, N
635624, 1765.6222222222223, N
635836, 1766.2111111111112, N
636034, 1766.7611111111112, N
636304, 1767.5111111111112, N
636615, 1768.375, N
636852, 1769.0333333333333, N
637057, 1769.6027777777779, N
637244, 1770.1222222222223, N
637426, 1770.6277777777777, N
637616, 1771.1555555555556, N
637816, 1771.7111111111112, N
638046, 1772.35, N
638367, 1773.2416666666666, N
638527, 1773.6861111111111, N
638712, 1774.2, N
638989, 1774.9694444444444, N
639134, 1775.3722222222223, N
639402, 1776.1166666666666, N
639659, 1776.8305555555555, N
639869, 1777.4138888888888, N
640033, 1777.8694444444445, N
640265, 1778.513888888889, N
640511, 1779.1972222222223, N
640712, 1779.7555555555555, N
640943, 1780.3972222222221, N
641232, 1781.2, N
641413, 1781.7027777777778, N
641566, 1782.1277777777777, N
641694, 1782.4833333333333, N
641899, 1783.0527777777777, N
642111, 1783.6416666666667, N
642323, 1784.2305555555556, N
642658, 1785.161111111111, N
642937, 1785.9361111111111, N
643152, 1786.5333333333333, N
643368, 1787.1333333333334, N
643560, 1787.6666666666667, N
643875, 1788.5416666666667, N
644043, 1789.0083333333334, N
644248, 1789.5777777777778, N
644387, 1789.963888888889, N
644633, 1790.6472222222221, N
644819, 1791.1638888888888, N
644983, 1791.6194444444445, N
645244, 1792.3444444444444, N
645437, 1792.8805555555555, N
645569, 1793.2472222222223, N
645827, 1793.963888888889, N
645982, 1794.3944444444444, N
646300, 1795.2777777777778, N
646461, 1795.725, N
646681, 1796.3361111111112, N
646976, 1797.1555555555556, N
647136, 1797.6, N
647386, 1798.2944444444445, N
647554, 1798.7611111111112, N
647721, 1799.225, N
648055, 1800.1527777777778, N
648240, 1800.6666666666667, N
648494, 1801.3722222222223, N
648719, 1801.9972222222223, N
648985, 1802.736111111111, N
649157, 1803.213888888889, N
649317, 1803.6583333333333, N
649600, 1804.4444444444443, N
649859, 1805.1638888888888, N
