96, 0.26666666666666666, +
204, 0.5666666666666667, N
480, 1.3333333333333333, N
759, 2.1083333333333334, N
1034, 2.8722222222222222, N
1306, 3.6277777777777778, N
1574, 4.372222222222222, N
1855, 5.152777777777778, N
2125, 5.902777777777778, N
2383, 6.6194444444444445, N
2646, 7.35, N
2908, 8.077777777777778, N
3175, 8.819444444444445, N
3444, 9.566666666666666, N
3710, 10.305555555555555, N
3967, 11.019444444444444, N
4238, 11.772222222222222, N
4514, 12.53888888888889, N
4779, 13.275, N
5036, 13.988888888888889, N
5300, 14.722222222222221, N
5568, 15.466666666666667, N
5842, 16.227777777777778, N
6107, 16.96388888888889, N
6371, 17.697222222222223, N
6644, 18.455555555555556, N
6919, 19.219444444444445, N
7184, 19.955555555555556, N
7443, 20.675, N
7707, 21.408333333333335, N
7976, 22.155555555555555, N
8249, 22.913888888888888, N
8490, 23.583333333333332, V
8776, 24.377777777777776, N
9046, 25.127777777777776, N
9321, 25.891666666666666, N
9586, 26.627777777777776, N
9851, 27.363888888888887, N
10118, 28.105555555555554, N
10388, 28.855555555555554, N
10667, 29.630555555555556, N
10941, 30.391666666666666, N
11209, 31.136111111111113, N
11477, 31.880555555555556, N
11760, 32.666666666666664, N
12035, 33.43055555555556, N
12308, 34.18888888888889, N
12583, 34.952777777777776, N
12852, 35.7, N
13130, 36.47222222222222, N
13402, 37.227777777777774, N
13668, 37.96666666666667, N
13933, 38.702777777777776, N
14214, 39.483333333333334, N
14481, 40.225, N
14742, 40.95, N
15009, 41.69166666666667, N
15276, 42.43333333333333, N
15548, 43.18888888888889, N
15823, 43.952777777777776, N
16097, 44.71388888888889, N
16371, 45.475, N
16664, 46.28888888888889, N
16942, 47.06111111111111, N
17211, 47.80833333333333, N
17489, 48.580555555555556, N
17765, 49.34722222222222, N
18045, 50.125, N
18316, 50.87777777777778, N
18583, 51.61944444444445, N
18850, 52.361111111111114, N
19124, 53.12222222222222, N
19389, 53.858333333333334, N
19642, 54.56111111111111, N
19905, 55.291666666666664, N
20169, 56.025, N
20438, 56.772222222222226, N
20707, 57.519444444444446, N
20972, 58.25555555555555, N
21233, 58.980555555555554, N
21508, 59.74444444444445, N
21777, 60.49166666666667, N
22036, 61.21111111111111, N
22251, 61.80833333333333, V
22571, 62.69722222222222, N
22848, 63.46666666666667, N
23048, 64.02222222222223, A
23340, 64.83333333333333, N
23629, 65.6361111111111, N
23923, 66.45277777777778, N
24206, 67.2388888888889, N
24480, 68.0, N
24757, 68.76944444444445, N
25031, 69.53055555555555, N
25313, 70.31388888888888, N
25582, 71.06111111111112, N
25848, 71.8, N
26122, 72.56111111111112, N
26305, 73.06944444444444, V
26669, 74.08055555555555, N
26933, 74.81388888888888, N
27203, 75.56388888888888, N
27461, 76.28055555555555, N
27733, 77.03611111111111, N
28002, 77.78333333333333, N
28269, 78.525, N
28540, 79.27777777777777, N
28824, 80.06666666666666, N
29095, 80.81944444444444, N
29361, 81.55833333333334, N
29634, 82.31666666666666, N
29903, 83.06388888888888, N
30180, 83.83333333333333, N
30457, 84.60277777777777, N
30728, 85.35555555555555, N
30995, 86.09722222222223, N
31269, 86.85833333333333, N
31534, 87.59444444444445, N
31783, 88.28611111111111, N
32048, 89.02222222222223, N
32312, 89.75555555555556, N
32578, 90.49444444444444, N
32848, 91.24444444444444, N
33112, 91.97777777777777, N
33371, 92.69722222222222, N
33644, 93.45555555555555, N
33910, 94.19444444444444, N
34170, 94.91666666666667, N
34431, 95.64166666666667, N
34698, 96.38333333333334, N
34970, 97.13888888888889, N
35237, 97.88055555555556, N
35499, 98.60833333333333, N
35758, 99.32777777777778, N
36019, 100.05277777777778, N
36292, 100.81111111111112, N
36558, 101.55, N
36819, 102.275, N
37091, 103.03055555555555, N
37356, 103.76666666666667, N
37628, 104.52222222222223, N
37893, 105.25833333333334, N
38151, 105.975, N
38413, 106.70277777777778, N
38683, 107.45277777777778, N
38944, 108.17777777777778, N
39205, 108.90277777777777, N
39462, 109.61666666666666, N
39726, 110.35, N
39992, 111.08888888888889, N
40261, 111.83611111111111, N
40520, 112.55555555555556, N
40779, 113.275, N
41055, 114.04166666666667, N
41331, 114.80833333333334, N
41602, 115.56111111111112, N
41867, 116.29722222222222, N
42139, 117.05277777777778, N
42411, 117.80833333333334, N
42685, 118.56944444444444, N
42841, 119.00277777777778, V
42994, 119.42777777777778, V
43415, 120.59722222222223, e
43517, 120.88055555555556, +
43620, 121.16666666666667, V
44045, 122.34722222222223, N
44325, 123.125, N
44586, 123.85, V
44879, 124.66388888888889, N
45163, 125.45277777777778, N
45424, 126.17777777777778, V
45693, 126.925, N
45965, 127.68055555555556, N
46216, 128.37777777777777, V
46499, 129.1638888888889, N
46763, 129.8972222222222, N
46995, 130.54166666666666, V
47295, 131.375, N
47571, 132.14166666666668, N
47760, 132.66666666666666, V
48091, 133.5861111111111, N
48364, 134.34444444444443, N
48561, 134.89166666666668, V
48903, 135.84166666666667, N
49167, 136.575, N
49364, 137.12222222222223, V
49529, 137.58055555555555, +
49694, 138.0388888888889, N
49943, 138.73055555555555, V
50165, 139.34722222222223, V
50490, 140.25, N
50753, 140.98055555555555, N
51032, 141.75555555555556, N
51293, 142.48055555555555, F
51546, 143.18333333333334, N
51806, 143.90555555555557, N
52066, 144.62777777777777, N
52332, 145.36666666666667, F
52598, 146.10555555555555, N
52850, 146.80555555555554, N
53104, 147.51111111111112, N
53373, 148.25833333333333, F
53640, 149.0, N
53892, 149.7, N
54146, 150.40555555555557, N
54396, 151.1, F
54676, 151.87777777777777, N
54947, 152.63055555555556, N
55211, 153.36388888888888, N
55456, 154.04444444444445, F
55753, 154.86944444444444, N
56028, 155.63333333333333, N
56294, 156.37222222222223, N
56551, 157.0861111111111, F
56625, 157.29166666666666, ~
56819, 157.83055555555555, N
57086, 158.57222222222222, N
57355, 159.31944444444446, N
57605, 160.01388888888889, N
57857, 160.7138888888889, N
58121, 161.44722222222222, N
58386, 162.18333333333334, N
58483, 162.45277777777778, ~
58639, 162.88611111111112, N
58891, 163.5861111111111, N
59061, 164.05833333333334, V
59397, 164.99166666666667, N
59660, 165.72222222222223, N
59915, 166.43055555555554, N
60169, 167.13611111111112, N
60432, 167.86666666666667, N
60704, 168.62222222222223, N
60963, 169.34166666666667, N
61217, 170.04722222222222, N
61477, 170.76944444444445, N
61733, 171.48055555555555, N
61995, 172.20833333333334, N
62188, 172.74444444444444, A
62470, 173.52777777777777, N
62746, 174.29444444444445, N
62985, 174.95833333333334, A
63291, 175.80833333333334, N
63555, 176.54166666666666, N
63815, 177.26388888888889, N
64091, 178.03055555555557, N
64362, 178.78333333333333, N
64639, 179.55277777777778, N
64905, 180.29166666666666, N
65164, 181.01111111111112, N
65431, 181.75277777777777, N
65702, 182.50555555555556, N
65959, 183.21944444444443, N
66211, 183.91944444444445, N
66475, 184.65277777777777, N
66739, 185.38611111111112, N
66960, 186.0, A
67242, 186.78333333333333, N
67518, 187.55, N
67740, 188.16666666666666, V
68062, 189.0611111111111, N
68331, 189.80833333333334, N
68596, 190.54444444444445, N
68868, 191.3, N
69136, 192.04444444444445, N
69408, 192.8, N
69675, 193.54166666666666, N
69943, 194.2861111111111, N
70204, 195.01111111111112, N
70478, 195.7722222222222, N
70747, 196.51944444444445, N
71012, 197.25555555555556, N
71281, 198.00277777777777, N
71542, 198.7277777777778, N
71812, 199.4777777777778, N
72078, 200.21666666666667, N
72341, 200.94722222222222, N
72600, 201.66666666666666, N
72876, 202.43333333333334, N
73145, 203.18055555555554, N
73413, 203.925, N
73675, 204.65277777777777, N
73938, 205.38333333333333, N
74209, 206.13611111111112, N
74481, 206.89166666666668, N
74739, 207.60833333333332, N
74998, 208.32777777777778, N
75276, 209.1, N
75553, 209.86944444444444, N
75820, 210.61111111111111, N
76084, 211.34444444444443, N
76351, 212.0861111111111, N
76618, 212.82777777777778, N
76890, 213.58333333333334, N
77156, 214.32222222222222, N
77418, 215.05, N
77687, 215.79722222222222, N
77963, 216.5638888888889, N
78223, 217.2861111111111, N
78476, 217.98888888888888, N
78736, 218.7111111111111, N
78988, 219.4111111111111, N
79249, 220.13611111111112, N
79511, 220.86388888888888, N
79775, 221.59722222222223, N
80037, 222.325, N
80315, 223.09722222222223, N
80586, 223.85, N
80848, 224.57777777777778, N
81116, 225.32222222222222, N
81334, 225.92777777777778, A
81636, 226.76666666666668, e
81931, 227.5861111111111, N
82202, 228.3388888888889, N
82467, 229.075, N
82742, 229.8388888888889, N
83008, 230.57777777777778, N
83263, 231.2861111111111, N
83516, 231.98888888888888, N
83775, 232.70833333333334, N
84031, 233.41944444444445, N
84301, 234.16944444444445, N
84558, 234.88333333333333, N
84814, 235.59444444444443, N
85081, 236.3361111111111, N
85348, 237.07777777777778, N
85612, 237.8111111111111, N
85868, 238.5222222222222, N
86136, 239.26666666666668, N
86403, 240.00833333333333, N
86679, 240.775, N
86941, 241.50277777777777, N
87204, 242.23333333333332, N
87471, 242.975, N
87741, 243.725, N
88004, 244.45555555555555, N
88260, 245.16666666666666, N
88525, 245.90277777777777, N
88784, 246.62222222222223, N
89056, 247.37777777777777, N
89313, 248.09166666666667, N
89568, 248.8, N
89827, 249.51944444444445, N
90101, 250.28055555555557, N
90360, 251.0, N
90610, 251.69444444444446, N
90867, 252.40833333333333, N
91124, 253.12222222222223, N
91393, 253.86944444444444, N
91657, 254.6027777777778, N
91916, 255.32222222222222, N
92171, 256.03055555555557, N
92447, 256.7972222222222, N
92711, 257.53055555555557, N
92963, 258.23055555555555, N
93230, 258.97222222222223, N
93495, 259.7083333333333, N
93764, 260.4555555555556, N
94035, 261.2083333333333, N
94301, 261.9472222222222, N
94560, 262.6666666666667, N
94830, 263.4166666666667, N
95088, 264.1333333333333, N
95344, 264.84444444444443, N
95599, 265.5527777777778, N
95860, 266.27777777777777, N
96118, 266.99444444444447, N
96382, 267.72777777777776, N
96634, 268.4277777777778, N
96888, 269.1333333333333, N
97149, 269.85833333333335, N
97414, 270.59444444444443, N
97676, 271.3222222222222, N
97933, 272.0361111111111, N
98197, 272.76944444444445, N
98460, 273.5, N
98728, 274.24444444444447, N
98986, 274.9611111111111, N
99244, 275.6777777777778, N
99504, 276.4, N
99774, 277.15, N
100036, 277.8777777777778, N
100293, 278.59166666666664, N
100501, 279.1694444444444, A
100800, 280.0, N
101044, 280.6777777777778, V
101327, 281.4638888888889, N
101586, 282.18333333333334, N
101839, 282.8861111111111, N
102106, 283.6277777777778, N
102366, 284.35, N
102624, 285.06666666666666, N
102888, 285.8, N
103150, 286.52777777777777, N
103413, 287.2583333333333, N
103680, 288.0, N
103937, 288.7138888888889, N
104191, 289.4194444444444, N
104456, 290.15555555555557, N
104730, 290.9166666666667, N
104992, 291.64444444444445, N
105248, 292.35555555555555, N
105512, 293.0888888888889, N
105768, 293.8, N
106035, 294.5416666666667, N
106239, 295.10833333333335, A
106524, 295.9, N
106794, 296.65, N
107076, 297.43333333333334, N
107350, 298.19444444444446, N
107609, 298.9138888888889, N
107871, 299.64166666666665, N
108131, 300.3638888888889, N
108394, 301.09444444444443, N
108657, 301.825, N
108910, 302.52777777777777, N
109162, 303.22777777777776, N
109425, 303.9583333333333, N
109691, 304.6972222222222, N
109952, 305.4222222222222, N
110206, 306.1277777777778, N
110465, 306.84722222222223, N
110727, 307.575, N
110986, 308.2944444444444, N
111248, 309.02222222222224, N
111438, 309.55, V
111772, 310.47777777777776, N
112053, 311.2583333333333, N
112320, 312.0, N
112577, 312.7138888888889, N
112839, 313.44166666666666, N
113098, 314.1611111111111, N
113363, 314.89722222222224, N
113628, 315.6333333333333, N
113887, 316.35277777777776, N
114145, 317.06944444444446, N
114410, 317.80555555555554, N
114671, 318.53055555555557, N
114928, 319.24444444444447, N
115185, 319.9583333333333, N
115441, 320.6694444444444, N
115705, 321.40277777777777, N
115976, 322.15555555555557, N
116237, 322.88055555555553, N
116496, 323.6, N
116765, 324.34722222222223, N
117036, 325.1, N
117299, 325.8305555555556, N
117552, 326.53333333333336, N
117813, 327.2583333333333, N
118066, 327.9611111111111, N
118333, 328.7027777777778, N
118590, 329.4166666666667, N
118849, 330.1361111111111, N
119110, 330.8611111111111, N
119382, 331.6166666666667, N
119643, 332.34166666666664, N
119898, 333.05, N
120165, 333.7916666666667, N
120429, 334.525, N
120699, 335.275, N
120970, 336.02777777777777, N
121234, 336.7611111111111, N
121495, 337.4861111111111, N
121773, 338.2583333333333, N
122034, 338.98333333333335, N
122289, 339.69166666666666, N
122551, 340.4194444444444, N
122813, 341.14722222222224, N
123083, 341.89722222222224, N
123348, 342.6333333333333, N
123608, 343.35555555555555, N
123860, 344.05555555555554, N
124125, 344.7916666666667, N
124386, 345.51666666666665, N
124639, 346.21944444444443, N
124892, 346.9222222222222, N
125152, 347.64444444444445, N
125419, 348.3861111111111, N
125684, 349.1222222222222, N
125945, 349.84722222222223, N
126136, 350.3777777777778, A
126429, 351.19166666666666, N
126712, 351.97777777777776, N
126983, 352.73055555555555, N
127252, 353.47777777777776, N
127524, 354.23333333333335, N
127800, 355.0, N
128075, 355.7638888888889, N
128339, 356.4972222222222, N
128601, 357.225, N
128878, 357.99444444444447, N
129144, 358.73333333333335, N
129410, 359.47222222222223, N
129673, 360.2027777777778, N
129934, 360.9277777777778, N
130199, 361.6638888888889, N
130468, 362.4111111111111, N
130721, 363.1138888888889, N
130977, 363.825, N
131239, 364.5527777777778, N
131511, 365.30833333333334, N
131778, 366.05, N
132036, 366.76666666666665, N
132305, 367.5138888888889, N
132562, 368.22777777777776, N
132827, 368.9638888888889, N
133022, 369.50555555555553, A
133305, 370.2916666666667, e
133609, 371.1361111111111, N
133895, 371.93055555555554, N
134166, 372.68333333333334, N
134426, 373.40555555555557, N
134676, 374.1, A
134957, 374.88055555555553, N
135230, 375.6388888888889, N
135494, 376.3722222222222, N
135762, 377.1166666666667, N
136028, 377.85555555555555, N
136309, 378.6361111111111, N
136581, 379.39166666666665, N
136842, 380.1166666666667, N
137117, 380.88055555555553, N
137391, 381.64166666666665, N
137677, 382.43611111111113, N
137956, 383.2111111111111, N
138230, 383.97222222222223, N
138492, 384.7, N
138765, 385.4583333333333, N
139026, 386.18333333333334, N
139280, 386.8888888888889, N
139537, 387.60277777777776, N
139795, 388.31944444444446, N
140060, 389.05555555555554, N
140322, 389.78333333333336, N
140578, 390.49444444444447, N
140827, 391.18611111111113, N
141083, 391.89722222222224, N
141346, 392.6277777777778, N
141602, 393.3388888888889, N
141853, 394.0361111111111, N
142110, 394.75, N
142359, 395.44166666666666, N
142618, 396.1611111111111, N
142871, 396.8638888888889, N
143122, 397.56111111111113, N
143369, 398.2472222222222, N
143628, 398.96666666666664, N
143880, 399.6666666666667, N
144132, 400.3666666666667, N
144379, 401.0527777777778, N
144630, 401.75, N
144883, 402.4527777777778, N
145137, 403.15833333333336, N
145388, 403.85555555555555, N
145634, 404.5388888888889, N
145887, 405.2416666666667, N
146154, 405.98333333333335, N
146407, 406.68611111111113, N
146661, 407.39166666666665, N
146912, 408.0888888888889, N
147164, 408.7888888888889, N
147417, 409.4916666666667, N
147677, 410.2138888888889, N
147918, 410.8833333333333, N
148161, 411.55833333333334, N
148415, 412.2638888888889, N
148677, 412.9916666666667, N
148930, 413.69444444444446, N
149177, 414.38055555555553, N
149429, 415.0805555555556, N
149681, 415.78055555555557, N
149937, 416.4916666666667, N
150200, 417.22222222222223, N
150339, 417.60833333333335, ~
150452, 417.9222222222222, N
150701, 418.6138888888889, N
150966, 419.35, N
151225, 420.06944444444446, N
151482, 420.78333333333336, N
151728, 421.46666666666664, N
151987, 422.18611111111113, N
152238, 422.8833333333333, N
152492, 423.5888888888889, N
152741, 424.28055555555557, N
152989, 424.96944444444443, N
153242, 425.6722222222222, N
153509, 426.4138888888889, N
153767, 427.13055555555553, N
154014, 427.81666666666666, N
154268, 428.52222222222224, N
154491, 429.14166666666665, V
154784, 429.9555555555556, N
155043, 430.675, N
155277, 431.325, N
155548, 432.0777777777778, N
155809, 432.8027777777778, N
156061, 433.5027777777778, N
156316, 434.2111111111111, N
156558, 434.8833333333333, N
156809, 435.5805555555556, N
157056, 436.26666666666665, N
157297, 436.93611111111113, A
157552, 437.64444444444445, N
157797, 438.325, N
158043, 439.0083333333333, N
158305, 439.7361111111111, N
158556, 440.43333333333334, N
158802, 441.1166666666667, N
159049, 441.8027777777778, N
159297, 442.4916666666667, N
159548, 443.18888888888887, N
159804, 443.9, N
160046, 444.5722222222222, N
160283, 445.23055555555555, N
160541, 445.9472222222222, N
160797, 446.65833333333336, N
161047, 447.35277777777776, N
161288, 448.02222222222224, N
161537, 448.7138888888889, N
161778, 449.3833333333333, N
162029, 450.0805555555556, N
162278, 450.77222222222224, N
162525, 451.4583333333333, N
162763, 452.11944444444447, N
162959, 452.6638888888889, A
163255, 453.4861111111111, N
163359, 453.775, ~
163505, 454.18055555555554, N
163722, 454.78333333333336, A
163999, 455.5527777777778, N
164243, 456.23055555555555, N
164492, 456.9222222222222, N
164737, 457.60277777777776, N
164982, 458.28333333333336, N
165221, 458.9472222222222, N
165470, 459.6388888888889, N
165710, 460.30555555555554, N
165952, 460.97777777777776, N
166192, 461.64444444444445, N
166440, 462.3333333333333, N
166682, 463.00555555555553, N
166934, 463.7055555555556, N
167132, 464.25555555555553, A
167422, 465.06111111111113, N
167669, 465.7472222222222, N
167924, 466.4555555555556, N
168170, 467.1388888888889, N
168415, 467.81944444444446, N
168654, 468.48333333333335, N
168863, 469.06388888888887, A
169141, 469.8361111111111, N
169390, 470.52777777777777, N
169587, 471.075, A
169866, 471.85, N
170114, 472.5388888888889, N
170368, 473.24444444444447, N
170608, 473.9111111111111, N
170854, 474.59444444444443, N
171095, 475.2638888888889, N
171310, 475.8611111111111, A
171577, 476.60277777777776, N
171831, 477.30833333333334, N
172074, 477.98333333333335, N
172318, 478.6611111111111, N
172547, 479.2972222222222, A
172816, 480.0444444444444, N
173072, 480.75555555555553, N
173320, 481.44444444444446, N
173568, 482.1333333333333, N
173817, 482.825, N
174061, 483.5027777777778, N
174312, 484.2, N
174559, 484.8861111111111, N
174772, 485.47777777777776, A
175011, 486.14166666666665, A
175295, 486.93055555555554, N
175548, 487.6333333333333, N
175792, 488.31111111111113, N
176035, 488.9861111111111, N
176292, 489.7, N
176540, 490.3888888888889, N
176793, 491.09166666666664, N
177043, 491.7861111111111, N
177286, 492.4611111111111, N
177535, 493.15277777777777, N
177790, 493.8611111111111, N
178037, 494.5472222222222, N
178280, 495.22222222222223, N
178523, 495.89722222222224, N
178775, 496.59722222222223, N
179022, 497.28333333333336, N
179276, 497.9888888888889, N
179526, 498.68333333333334, N
179776, 499.3777777777778, N
180027, 500.075, N
180291, 500.80833333333334, N
180542, 501.50555555555553, N
180787, 502.18611111111113, N
181041, 502.89166666666665, N
181294, 503.59444444444443, N
181553, 504.31388888888887, N
181817, 505.0472222222222, N
182072, 505.75555555555553, N
182324, 506.4555555555556, N
182584, 507.1777777777778, N
182843, 507.89722222222224, N
183101, 508.6138888888889, N
183345, 509.2916666666667, N
183596, 509.9888888888889, N
183845, 510.68055555555554, N
184100, 511.3888888888889, N
184351, 512.0861111111111, N
184568, 512.6888888888889, A
184814, 513.3722222222223, e
185113, 514.2027777777778, N
185376, 514.9333333333333, N
185630, 515.6388888888889, N
185883, 516.3416666666667, N
186134, 517.0388888888889, N
186393, 517.7583333333333, N
186649, 518.4694444444444, N
186893, 519.1472222222222, N
187139, 519.8305555555555, N
187390, 520.5277777777778, N
187647, 521.2416666666667, N
187899, 521.9416666666667, N
188141, 522.6138888888889, N
188390, 523.3055555555555, N
188635, 523.9861111111111, N
188890, 524.6944444444445, N
189146, 525.4055555555556, N
189393, 526.0916666666667, N
189635, 526.7638888888889, N
189893, 527.4805555555556, N
190144, 528.1777777777778, N
190391, 528.8638888888889, N
190639, 529.5527777777778, N
190840, 530.1111111111111, A
191093, 530.8138888888889, e
191377, 531.6027777777778, N
191632, 532.3111111111111, N
191882, 533.0055555555556, N
192125, 533.6805555555555, N
192389, 534.4138888888889, N
192639, 535.1083333333333, N
192882, 535.7833333333333, N
193131, 536.475, N
193385, 537.1805555555555, N
193642, 537.8944444444444, N
193900, 538.6111111111111, N
194153, 539.3138888888889, N
194394, 539.9833333333333, N
194651, 540.6972222222222, N
194906, 541.4055555555556, N
195152, 542.0888888888888, N
195392, 542.7555555555556, N
195631, 543.4194444444445, N
195869, 544.0805555555555, N
196068, 544.6333333333333, A
196359, 545.4416666666667, N
196606, 546.1277777777777, N
196838, 546.7722222222222, A
197102, 547.5055555555556, N
197348, 548.1888888888889, N
197597, 548.8805555555556, N
197840, 549.5555555555555, N
198088, 550.2444444444444, N
198329, 550.9138888888889, N
198579, 551.6083333333333, N
198821, 552.2805555555556, N
199064, 552.9555555555555, N
199300, 553.6111111111111, N
199553, 554.3138888888889, N
199797, 554.9916666666667, N
200040, 555.6666666666666, N
200280, 556.3333333333334, N
200500, 556.9444444444445, A
200769, 557.6916666666667, N
201027, 558.4083333333333, N
201273, 559.0916666666667, N
201520, 559.7777777777778, N
201766, 560.4611111111111, N
202024, 561.1777777777778, N
202269, 561.8583333333333, N
202513, 562.5361111111112, N
202758, 563.2166666666667, N
202916, 563.6555555555556, V
203251, 564.5861111111111, N
203502, 565.2833333333333, N
203747, 565.9638888888888, N
203986, 566.6277777777777, N
204223, 567.2861111111112, N
204476, 567.9888888888889, N
204715, 568.6527777777778, N
204926, 569.2388888888889, A
205185, 569.9583333333334, N
205433, 570.6472222222222, N
205653, 571.2583333333333, A
205910, 571.9722222222222, N
206153, 572.6472222222222, N
206395, 573.3194444444445, N
206606, 573.9055555555556, A
206874, 574.65, N
207120, 575.3333333333334, N
207353, 575.9805555555556, F
207587, 576.6305555555556, N
207789, 577.1916666666667, V
208009, 577.8027777777778, N
208178, 578.2722222222222, +
208252, 578.4777777777778, V
208445, 579.0138888888889, V
208700, 579.7222222222222, V
208882, 580.2277777777778, V
209134, 580.9277777777778, V
209331, 581.475, V
209586, 582.1833333333333, V
209775, 582.7083333333334, V
210015, 583.375, V
210202, 583.8944444444444, V
210433, 584.5361111111112, V
210628, 585.0777777777778, V
210868, 585.7444444444444, V
211059, 586.275, V
211284, 586.9, V
211467, 587.4083333333333, V
211707, 588.075, V
211901, 588.6138888888889, V
212130, 589.25, V
212322, 589.7833333333333, V
212537, 590.3805555555556, V
212718, 590.8833333333333, V
212934, 591.4833333333333, V
213125, 592.0138888888889, V
213347, 592.6305555555556, V
213536, 593.1555555555556, V
213744, 593.7333333333333, V
213932, 594.2555555555556, V
214144, 594.8444444444444, V
214342, 595.3944444444444, V
214546, 595.9611111111111, V
214740, 596.5, V
214940, 597.0555555555555, V
215125, 597.5694444444445, V
215316, 598.1, V
215506, 598.6277777777777, V
215711, 599.1972222222222, V
215905, 599.7361111111111, V
216115, 600.3194444444445, V
216304, 600.8444444444444, V
216494, 601.3722222222223, V
216692, 601.9222222222222, V
216907, 602.5194444444444, V
217090, 603.0277777777778, V
217281, 603.5583333333333, V
217469, 604.0805555555555, V
217674, 604.65, V
217860, 605.1666666666666, V
218063, 605.7305555555556, V
218262, 606.2833333333333, V
218451, 606.8083333333333, V
218642, 607.3388888888888, V
218847, 607.9083333333333, V
219038, 608.4388888888889, V
219262, 609.0611111111111, V
219449, 609.5805555555555, V
219653, 610.1472222222222, V
219842, 610.6722222222222, V
220034, 611.2055555555555, V
220226, 611.7388888888889, V
220437, 612.325, V
220627, 612.8527777777778, V
220832, 613.4222222222222, V
221026, 613.9611111111111, V
221142, 614.2833333333333, ~
221203, 614.4527777777778, V
221391, 614.975, V
221630, 615.6388888888889, V
221816, 616.1555555555556, V
222020, 616.7222222222222, V
222209, 617.2472222222223, V
222400, 617.7777777777778, V
222589, 618.3027777777778, V
222803, 618.8972222222222, V
222993, 619.425, V
223198, 619.9944444444444, V
223380, 620.5, V
223588, 621.0777777777778, V
223778, 621.6055555555556, V
223987, 622.1861111111111, V
224176, 622.7111111111111, V
224387, 623.2972222222222, V
224568, 623.8, V
224768, 624.3555555555556, V
224962, 624.8944444444444, V
225179, 625.4972222222223, V
225364, 626.0111111111111, V
225599, 626.6638888888889, V
225790, 627.1944444444445, V
225997, 627.7694444444444, V
226184, 628.2888888888889, V
226407, 628.9083333333333, V
226599, 629.4416666666667, V
226830, 630.0833333333334, V
227015, 630.5972222222222, V
227229, 631.1916666666667, V
227411, 631.6972222222222, V
227765, 632.6805555555555, V
227921, 633.1138888888889, ~
228004, 633.3444444444444, +
228098, 633.6055555555556, N
228290, 634.1388888888889, A
228502, 634.7277777777778, A
228806, 635.5722222222222, N
229067, 636.2972222222222, N
229308, 636.9666666666667, A
229559, 637.6638888888889, N
229742, 638.1722222222222, ~
229810, 638.3611111111111, N
230052, 639.0333333333333, N
230300, 639.7222222222222, N
230535, 640.375, N
230772, 641.0333333333333, N
231005, 641.6805555555555, N
231257, 642.3805555555556, N
231489, 643.025, N
231719, 643.6638888888889, N
231948, 644.3, N
232193, 644.9805555555556, N
232431, 645.6416666666667, N
232673, 646.3138888888889, N
232910, 646.9722222222222, N
233148, 647.6333333333333, N
233384, 648.2888888888889, N
233624, 648.9555555555555, N
233869, 649.6361111111111, N
234106, 650.2944444444445, N
234214, 650.5944444444444, ~
234339, 650.9416666666667, N
234575, 651.5972222222222, N
234810, 652.25, N
235057, 652.9361111111111, N
235300, 653.6111111111111, N
235543, 654.2861111111112, N
235780, 654.9444444444445, N
236029, 655.6361111111111, N
236274, 656.3166666666667, N
236520, 657.0, N
236760, 657.6666666666666, N
237004, 658.3444444444444, N
237252, 659.0333333333333, N
237499, 659.7194444444444, N
237745, 660.4027777777778, N
237996, 661.1, N
238241, 661.7805555555556, N
238503, 662.5083333333333, N
238752, 663.2, N
238998, 663.8833333333333, N
239247, 664.575, N
239496, 665.2666666666667, N
239748, 665.9666666666667, N
239974, 666.5944444444444, V
240243, 667.3416666666667, N
240494, 668.0388888888889, N
240741, 668.725, N
241004, 669.4555555555555, N
241255, 670.1527777777778, N
241503, 670.8416666666667, N
241750, 671.5277777777778, N
241998, 672.2166666666667, N
242247, 672.9083333333333, N
242497, 673.6027777777778, N
242741, 674.2805555555556, N
242979, 674.9416666666667, N
243222, 675.6166666666667, N
243478, 676.3277777777778, N
243725, 677.0138888888889, N
243971, 677.6972222222222, N
244218, 678.3833333333333, N
244467, 679.075, N
244717, 679.7694444444444, N
244974, 680.4833333333333, N
245219, 681.1638888888889, N
245462, 681.8388888888888, N
245713, 682.5361111111112, N
245969, 683.2472222222223, N
246214, 683.9277777777778, N
246449, 684.5805555555555, N
246695, 685.2638888888889, N
246941, 685.9472222222222, N
247185, 686.625, N
247428, 687.3, N
247667, 687.9638888888888, N
247903, 688.6194444444444, N
248143, 689.2861111111112, N
248393, 689.9805555555556, N
248633, 690.6472222222222, N
248871, 691.3083333333333, N
249110, 691.9722222222222, N
249355, 692.6527777777778, N
249600, 693.3333333333334, N
249847, 694.0194444444444, N
250095, 694.7083333333334, N
250340, 695.3888888888889, N
250586, 696.0722222222222, N
250840, 696.7777777777778, N
251088, 697.4666666666667, N
251330, 698.1388888888889, N
251568, 698.8, N
251815, 699.4861111111111, N
252062, 700.1722222222222, N
252310, 700.8611111111111, N
252483, 701.3416666666667, A
252668, 701.8555555555556, A
252955, 702.6527777777778, N
253239, 703.4416666666667, N
253494, 704.15, N
253743, 704.8416666666667, N
253988, 705.5222222222222, N
254242, 706.2277777777778, N
254489, 706.9138888888889, N
254741, 707.6138888888889, N
254981, 708.2805555555556, N
255223, 708.9527777777778, N
255471, 709.6416666666667, N
255726, 710.35, N
255972, 711.0333333333333, N
256215, 711.7083333333334, N
256462, 712.3944444444444, N
256707, 713.075, N
256961, 713.7805555555556, N
257218, 714.4944444444444, N
257462, 715.1722222222222, N
257702, 715.8388888888888, N
257957, 716.5472222222222, N
258214, 717.2611111111111, N
258460, 717.9444444444445, N
258709, 718.6361111111111, N
258958, 719.3277777777778, N
259201, 720.0027777777777, N
259453, 720.7027777777778, N
259699, 721.3861111111111, N
259943, 722.0638888888889, N
260177, 722.7138888888888, N
260425, 723.4027777777778, N
260674, 724.0944444444444, N
260914, 724.7611111111111, N
261148, 725.4111111111112, N
261396, 726.1, N
261640, 726.7777777777778, N
261891, 727.475, N
262082, 728.0055555555556, A
262354, 728.7611111111111, N
262530, 729.25, V
262814, 730.0388888888889, V
263127, 730.9083333333333, N
263369, 731.5805555555555, N
263612, 732.2555555555556, N
263704, 732.5111111111111, +
263797, 732.7694444444444, V
264110, 733.6388888888889, N
264290, 734.1388888888889, V
264602, 735.0055555555556, N
264773, 735.4805555555556, V
265094, 736.3722222222223, N
265272, 736.8666666666667, V
265583, 737.7305555555556, N
265755, 738.2083333333334, V
266055, 739.0416666666666, N
266231, 739.5305555555556, V
266533, 740.3694444444444, N
266711, 740.8638888888889, V
266968, 741.5777777777778, N
267147, 742.075, V
267496, 743.0444444444445, N
267673, 743.5361111111112, V
267997, 744.4361111111111, N
268173, 744.925, V
268474, 745.7611111111111, N
268653, 746.2583333333333, V
268959, 747.1083333333333, N
269062, 747.3944444444444, +
269138, 747.6055555555556, V
269353, 748.2027777777778, V
269518, 748.6611111111112, V
269716, 749.2111111111111, +
269819, 749.4972222222223, N
270000, 750.0, V
270371, 751.0305555555556, N
270541, 751.5027777777777, V
270862, 752.3944444444444, N
271038, 752.8833333333333, V
271358, 753.7722222222222, N
271534, 754.2611111111111, V
271843, 755.1194444444444, N
272026, 755.6277777777777, V
272324, 756.4555555555555, N
272453, 756.8138888888889, ~
272508, 756.9666666666667, V
272660, 757.3888888888889, +
272812, 757.8111111111111, N
273053, 758.4805555555556, N
273289, 759.1361111111111, N
273532, 759.8111111111111, N
273764, 760.4555555555555, N
274006, 761.1277777777777, N
274245, 761.7916666666666, N
274479, 762.4416666666667, N
274708, 763.0777777777778, N
274951, 763.7527777777777, N
275042, 764.0055555555556, ~
275190, 764.4166666666666, N
275430, 765.0833333333334, N
275654, 765.7055555555555, N
275898, 766.3833333333333, N
276139, 767.0527777777778, N
276379, 767.7194444444444, N
276625, 768.4027777777778, N
276863, 769.0638888888889, N
277098, 769.7166666666667, N
277336, 770.3777777777777, N
277588, 771.0777777777778, N
277827, 771.7416666666667, N
278054, 772.3722222222223, N
278289, 773.025, N
278532, 773.7, N
278779, 774.3861111111111, N
279021, 775.0583333333333, N
279258, 775.7166666666667, N
279494, 776.3722222222223, N
279740, 777.0555555555555, N
279988, 777.7444444444444, N
280234, 778.4277777777778, N
280471, 779.0861111111111, N
280706, 779.7388888888889, N
280954, 780.4277777777778, N
281201, 781.1138888888889, N
281452, 781.8111111111111, N
281698, 782.4944444444444, N
281939, 783.1638888888889, N
282190, 783.8611111111111, N
282446, 784.5722222222222, N
282693, 785.2583333333333, N
282935, 785.9305555555555, N
283183, 786.6194444444444, N
283429, 787.3027777777778, N
283679, 787.9972222222223, N
283938, 788.7166666666667, N
284188, 789.4111111111112, N
284436, 790.1, N
284640, 790.6666666666666, A
284942, 791.5055555555556, N
285121, 792.0027777777777, V
285370, 792.6944444444445, V
285682, 793.5611111111111, N
285926, 794.2388888888889, N
286174, 794.9277777777778, N
286427, 795.6305555555556, N
286670, 796.3055555555555, N
286905, 796.9583333333334, N
287158, 797.6611111111112, N
287413, 798.3694444444444, N
287658, 799.05, N
287897, 799.7138888888888, N
288143, 800.3972222222222, N
288386, 801.0722222222222, N
288636, 801.7666666666667, N
288886, 802.4611111111111, N
289135, 803.1527777777778, N
289380, 803.8333333333334, N
289636, 804.5444444444445, N
289822, 805.0611111111111, A
290008, 805.5777777777778, A
290291, 806.3638888888889, e
290581, 807.1694444444445, N
290841, 807.8916666666667, N
291096, 808.6, N
291347, 809.2972222222222, N
291596, 809.9888888888889, N
291845, 810.6805555555555, N
292106, 811.4055555555556, N
292356, 812.1, N
292598, 812.7722222222222, N
292843, 813.4527777777778, N
293091, 814.1416666666667, N
293343, 814.8416666666667, N
293594, 815.5388888888889, N
293830, 816.1944444444445, N
294074, 816.8722222222223, N
294320, 817.5555555555555, N
294577, 818.2694444444444, N
294827, 818.9638888888888, N
295068, 819.6333333333333, N
295314, 820.3166666666667, N
295558, 820.9944444444444, N
295812, 821.7, N
296055, 822.375, V
296310, 823.0833333333334, N
296556, 823.7666666666667, N
296741, 824.2805555555556, A
296938, 824.8277777777778, A
297234, 825.65, N
297520, 826.4444444444445, N
297792, 827.2, N
298052, 827.9222222222222, N
298313, 828.6472222222222, N
298391, 828.8638888888889, +
298525, 829.2361111111111, V
298823, 830.0638888888889, N
299049, 830.6916666666667, V
299339, 831.4972222222223, N
299578, 832.1611111111112, F
299841, 832.8916666666667, N
300077, 833.5472222222222, F
300343, 834.2861111111112, N
300586, 834.9611111111111, F
300852, 835.7, N
301082, 836.3388888888888, F
301340, 837.0555555555555, N
301567, 837.6861111111111, V
301844, 838.4555555555555, N
302066, 839.0722222222222, V
302339, 839.8305555555555, N
302440, 840.1111111111111, +
302582, 840.5055555555556, N
302831, 841.1972222222222, N
303044, 841.7888888888889, V
303331, 842.5861111111111, N
303577, 843.2694444444444, N
303818, 843.9388888888889, N
304011, 844.475, V
304309, 845.3027777777778, N
304560, 846.0, N
304804, 846.6777777777778, N
305056, 847.3777777777777, N
305306, 848.0722222222222, N
305562, 848.7833333333333, N
305809, 849.4694444444444, N
306064, 850.1777777777778, N
306311, 850.8638888888889, N
306571, 851.5861111111111, N
306821, 852.2805555555556, N
307067, 852.9638888888888, N
307318, 853.6611111111112, N
307569, 854.3583333333333, N
307820, 855.0555555555555, N
308018, 855.6055555555556, V
308304, 856.4, N
308522, 857.0055555555556, V
308793, 857.7583333333333, N
309046, 858.4611111111111, N
309291, 859.1416666666667, N
309532, 859.8111111111111, N
309778, 860.4944444444444, N
309956, 860.9888888888889, A
310173, 861.5916666666667, A
310483, 862.4527777777778, N
310742, 863.1722222222222, N
310988, 863.8555555555556, N
311231, 864.5305555555556, N
311493, 865.2583333333333, N
311736, 865.9333333333333, N
311979, 866.6083333333333, N
312219, 867.275, N
312466, 867.9611111111111, N
312710, 868.6388888888889, N
312957, 869.325, N
313200, 870.0, N
313443, 870.675, N
313679, 871.3305555555555, N
313935, 872.0416666666666, N
314175, 872.7083333333334, N
314421, 873.3916666666667, N
314657, 874.0472222222222, N
314911, 874.7527777777777, N
315156, 875.4333333333333, N
315402, 876.1166666666667, N
315647, 876.7972222222222, N
315851, 877.3638888888889, A
316119, 878.1083333333333, N
316384, 878.8444444444444, N
316638, 879.55, N
316884, 880.2333333333333, N
317128, 880.9111111111112, N
317377, 881.6027777777778, N
317634, 882.3166666666667, N
317880, 883.0, N
318129, 883.6916666666667, N
318376, 884.3777777777777, N
318555, 884.875, A
318836, 885.6555555555556, N
319019, 886.1638888888889, V
319288, 886.9111111111112, V
319588, 887.7444444444444, N
319839, 888.4416666666667, N
320087, 889.1305555555556, N
320347, 889.8527777777778, N
320595, 890.5416666666666, N
320841, 891.225, N
321091, 891.9194444444445, N
321348, 892.6333333333333, N
321600, 893.3333333333334, N
321843, 894.0083333333333, N
322093, 894.7027777777778, N
322342, 895.3944444444444, N
322600, 896.1111111111111, N
322793, 896.6472222222222, A
323072, 897.4222222222222, N
323250, 897.9166666666666, V
323522, 898.6722222222222, V
323870, 899.6388888888889, N
324120, 900.3333333333334, N
324335, 900.9305555555555, A
324583, 901.6194444444444, A
324867, 902.4083333333333, N
325120, 903.1111111111111, N
325370, 903.8055555555555, N
325610, 904.4722222222222, N
325855, 905.1527777777778, N
326112, 905.8666666666667, N
326357, 906.5472222222222, N
326592, 907.2, N
326843, 907.8972222222222, N
327084, 908.5666666666667, N
327339, 909.275, N
327596, 909.9888888888889, N
327845, 910.6805555555555, N
328020, 911.1666666666666, A
328226, 911.7388888888889, e
328547, 912.6305555555556, N
328812, 913.3666666666667, N
329060, 914.0555555555555, N
329312, 914.7555555555556, N
329563, 915.4527777777778, N
329819, 916.1638888888889, N
330077, 916.8805555555556, N
330326, 917.5722222222222, N
330576, 918.2666666666667, N
330836, 918.9888888888889, N
331090, 919.6944444444445, N
331336, 920.3777777777777, N
331578, 921.05, N
331830, 921.75, N
332077, 922.4361111111111, N
332327, 923.1305555555556, N
332571, 923.8083333333333, N
332810, 924.4722222222222, N
333060, 925.1666666666666, N
333312, 925.8666666666667, N
333560, 926.5555555555555, N
333799, 927.2194444444444, N
334044, 927.9, N
334283, 928.5638888888889, N
334488, 929.1333333333333, A
334684, 929.6777777777778, +
334771, 929.9194444444445, N
334946, 930.4055555555556, V
335292, 931.3666666666667, N
335466, 931.85, V
335809, 932.8027777777778, N
335984, 933.2888888888889, V
336312, 934.2, N
336486, 934.6833333333333, V
336811, 935.5861111111111, N
336988, 936.0777777777778, V
337328, 937.0222222222222, N
337500, 937.5, V
337823, 938.3972222222222, N
338000, 938.8888888888889, V
338337, 939.825, N
338512, 940.3111111111111, V
338830, 941.1944444444445, N
339011, 941.6972222222222, V
339336, 942.6, N
339508, 943.0777777777778, V
339636, 943.4333333333333, +
339765, 943.7916666666666, N
340046, 944.5722222222222, N
340303, 945.2861111111112, N
340560, 946.0, N
340811, 946.6972222222222, N
341050, 947.3611111111111, N
341291, 948.0305555555556, N
341540, 948.7222222222222, N
341784, 949.4, N
342028, 950.0777777777778, N
342275, 950.7638888888889, N
342523, 951.4527777777778, N
342764, 952.1222222222223, N
343014, 952.8166666666667, N
343264, 953.5111111111111, N
343511, 954.1972222222222, N
343756, 954.8777777777777, N
344004, 955.5666666666667, N
344252, 956.2555555555556, N
344506, 956.9611111111111, N
344755, 957.6527777777778, N
345008, 958.3555555555556, N
345258, 959.05, N
345519, 959.775, N
345743, 960.3972222222222, A
346017, 961.1583333333333, N
346266, 961.85, N
346516, 962.5444444444445, N
346768, 963.2444444444444, N
347020, 963.9444444444445, N
347265, 964.625, N
347509, 965.3027777777778, N
347761, 966.0027777777777, N
348018, 966.7166666666667, N
348261, 967.3916666666667, N
348504, 968.0666666666667, N
348748, 968.7444444444444, N
348989, 969.4138888888889, N
349242, 970.1166666666667, N
349494, 970.8166666666667, N
349739, 971.4972222222223, N
349984, 972.1777777777778, N
350234, 972.8722222222223, N
350491, 973.5861111111111, N
350739, 974.275, N
350982, 974.95, N
351226, 975.6277777777777, N
351467, 976.2972222222222, N
351716, 976.9888888888889, N
351971, 977.6972222222222, N
352176, 978.2666666666667, A
352452, 979.0333333333333, N
352664, 979.6222222222223, V
352955, 980.4305555555555, N
353204, 981.1222222222223, N
353441, 981.7805555555556, N
353687, 982.4638888888888, N
353928, 983.1333333333333, N
354173, 983.8138888888889, N
354419, 984.4972222222223, N
354659, 985.1638888888889, N
354897, 985.825, N
355141, 986.5027777777777, N
355392, 987.2, N
355635, 987.875, N
355863, 988.5083333333333, N
356108, 989.1888888888889, N
356346, 989.85, N
356594, 990.5388888888889, N
356840, 991.2222222222222, N
357086, 991.9055555555556, N
357325, 992.5694444444445, N
357584, 993.2888888888889, N
357842, 994.0055555555556, N
358091, 994.6972222222222, N
358336, 995.3777777777777, N
358590, 996.0833333333334, N
358845, 996.7916666666666, N
359095, 997.4861111111111, N
359343, 998.175, N
359589, 998.8583333333333, N
359836, 999.5444444444445, N
360099, 1000.275, N
360350, 1000.9722222222222, N
360600, 1001.6666666666666, N
360853, 1002.3694444444444, N
361099, 1003.0527777777778, N
361357, 1003.7694444444444, N
361618, 1004.4944444444444, N
361868, 1005.1888888888889, N
362117, 1005.8805555555556, N
362377, 1006.6027777777778, N
362643, 1007.3416666666667, N
362902, 1008.0611111111111, N
363151, 1008.7527777777777, N
363412, 1009.4777777777778, N
363669, 1010.1916666666667, N
363929, 1010.9138888888889, N
364110, 1011.4166666666666, A
364283, 1011.8972222222222, V
364657, 1012.9361111111111, N
364748, 1013.1888888888889, +
364843, 1013.4527777777778, V
365119, 1014.2194444444444, V
365334, 1014.8166666666667, V
365500, 1015.2777777777778, +
365706, 1015.85, N
365881, 1016.3361111111111, V
366217, 1017.2694444444444, N
366395, 1017.7638888888889, V
366675, 1018.5416666666666, N
366842, 1019.0055555555556, V
367200, 1020.0, V
367497, 1020.825, N
367745, 1021.5138888888889, N
367994, 1022.2055555555555, N
368245, 1022.9027777777778, N
368468, 1023.5222222222222, V
368738, 1024.2722222222221, N
368982, 1024.95, N
369230, 1025.638888888889, N
369473, 1026.3138888888889, N
369727, 1027.0194444444444, N
369973, 1027.7027777777778, N
370200, 1028.3333333333333, V
370458, 1029.05, N
370680, 1029.6666666666667, N
370947, 1030.4083333333333, N
371206, 1031.1277777777777, N
371431, 1031.7527777777777, V
371697, 1032.4916666666666, N
371954, 1033.2055555555555, N
372210, 1033.9166666666667, F
372462, 1034.6166666666666, N
372702, 1035.2833333333333, N
372952, 1035.9777777777779, N
373194, 1036.65, N
373294, 1036.9277777777777, +
373394, 1037.2055555555555, V
373700, 1038.0555555555557, N
373943, 1038.7305555555556, N
374153, 1039.3138888888889, V
374444, 1040.1222222222223, N
374698, 1040.8277777777778, N
374918, 1041.4388888888889, V
375191, 1042.1972222222223, N
375402, 1042.7833333333333, A
375556, 1043.2111111111112, +
375669, 1043.525, V
375852, 1044.0333333333333, V
376084, 1044.6777777777777, V
376253, 1045.1472222222221, V
376472, 1045.7555555555555, V
376635, 1046.2083333333333, V
376860, 1046.8333333333333, V
377037, 1047.325, V
377259, 1047.9416666666666, V
377429, 1048.4138888888888, V
377657, 1049.0472222222222, V
377823, 1049.5083333333334, V
378046, 1050.1277777777777, V
378222, 1050.6166666666666, V
378451, 1051.2527777777777, V
378625, 1051.736111111111, V
378851, 1052.3638888888888, V
379012, 1052.8111111111111, V
379252, 1053.4777777777779, V
379426, 1053.9611111111112, V
379658, 1054.6055555555556, V
379828, 1055.0777777777778, V
380042, 1055.6722222222222, V
380213, 1056.1472222222221, V
380458, 1056.8277777777778, V
380619, 1057.275, V
380862, 1057.95, V
381039, 1058.4416666666666, V
381268, 1059.0777777777778, V
381434, 1059.5388888888888, V
381675, 1060.2083333333333, V
381847, 1060.6861111111111, V
382088, 1061.3555555555556, V
382256, 1061.8222222222223, V
382472, 1062.4222222222222, V
382641, 1062.8916666666667, V
382882, 1063.5611111111111, V
383044, 1064.0111111111112, V
383288, 1064.6888888888889, V
383461, 1065.1694444444445, V
383696, 1065.8222222222223, V
383866, 1066.2944444444445, V
384111, 1066.975, V
384281, 1067.4472222222223, V
384538, 1068.161111111111, V
384708, 1068.6333333333334, V
384949, 1069.3027777777777, V
385116, 1069.7666666666667, V
385376, 1070.4888888888888, V
385545, 1070.9583333333333, V
385817, 1071.713888888889, V
385986, 1072.1833333333334, V
386247, 1072.9083333333333, V
386415, 1073.375, V
386675, 1074.0972222222222, V
386855, 1074.5972222222222, V
387098, 1075.2722222222221, V
387269, 1075.7472222222223, V
387516, 1076.4333333333334, V
387683, 1076.8972222222221, V
387951, 1077.6416666666667, V
388127, 1078.1305555555555, V
388404, 1078.9, V
388572, 1079.3666666666666, V
388858, 1080.161111111111, V
389032, 1080.6444444444444, V
389421, 1081.725, V
389589, 1082.1916666666666, +
389757, 1082.6583333333333, N
390015, 1083.375, N
390266, 1084.0722222222223, N
390521, 1084.7805555555556, N
390777, 1085.4916666666666, N
391027, 1086.1861111111111, N
391266, 1086.85, N
391521, 1087.5583333333334, N
391775, 1088.263888888889, N
392019, 1088.9416666666666, N
392262, 1089.6166666666666, N
392513, 1090.3138888888889, N
392755, 1090.986111111111, N
393006, 1091.6833333333334, N
393254, 1092.3722222222223, N
393503, 1093.0638888888889, N
393749, 1093.7472222222223, N
394008, 1094.4666666666667, N
394193, 1094.9805555555556, A
394470, 1095.75, N
394725, 1096.4583333333333, N
394987, 1097.1861111111111, N
395243, 1097.8972222222221, N
395501, 1098.6138888888888, N
395750, 1099.3055555555557, N
396001, 1100.0027777777777, N
396252, 1100.7, N
396512, 1101.4222222222222, N
396766, 1102.1277777777777, N
397006, 1102.7944444444445, N
397250, 1103.4722222222222, N
397495, 1104.1527777777778, N
397732, 1104.8111111111111, V
397999, 1105.5527777777777, N
398244, 1106.2333333333333, N
398492, 1106.9222222222222, N
398748, 1107.6333333333334, N
399003, 1108.3416666666667, N
399253, 1109.036111111111, N
399494, 1109.7055555555555, N
399748, 1110.411111111111, N
399995, 1111.0972222222222, N
400249, 1111.8027777777777, N
400495, 1112.486111111111, N
400742, 1113.1722222222222, N
400999, 1113.8861111111112, N
401263, 1114.6194444444445, N
401516, 1115.3222222222223, N
401762, 1116.0055555555555, N
402014, 1116.7055555555555, N
402266, 1117.4055555555556, N
402522, 1118.1166666666666, N
402782, 1118.838888888889, N
403031, 1119.5305555555556, N
403278, 1120.2166666666667, N
403536, 1120.9333333333334, N
403796, 1121.6555555555556, N
404049, 1122.3583333333333, N
404298, 1123.05, N
404548, 1123.7444444444445, N
404793, 1124.425, N
404979, 1124.9416666666666, V
405294, 1125.8166666666666, N
405473, 1126.3138888888889, V
405751, 1127.0861111111112, V
406055, 1127.9305555555557, N
406307, 1128.6305555555555, N
406559, 1129.3305555555555, N
406801, 1130.0027777777777, N
407055, 1130.7083333333333, N
407307, 1131.4083333333333, N
407554, 1132.0944444444444, N
407802, 1132.7833333333333, N
408045, 1133.4583333333333, N
408296, 1134.1555555555556, N
408556, 1134.8777777777777, N
408806, 1135.5722222222223, N
409049, 1136.2472222222223, N
409298, 1136.9388888888889, N
409551, 1137.6416666666667, N
409804, 1138.3444444444444, N
410064, 1139.0666666666666, N
410309, 1139.7472222222223, N
410554, 1140.4277777777777, N
410808, 1141.1333333333334, N
411063, 1141.8416666666667, N
411318, 1142.55, N
411562, 1143.2277777777779, N
411814, 1143.9277777777777, N
412054, 1144.5944444444444, N
412310, 1145.3055555555557, N
412558, 1145.9944444444445, N
412804, 1146.6777777777777, N
413041, 1147.3361111111112, N
413293, 1148.036111111111, N
413547, 1148.7416666666666, N
413795, 1149.4305555555557, N
414038, 1150.1055555555556, N
414218, 1150.6055555555556, A
414492, 1151.3666666666666, N
414676, 1151.8777777777777, V
414953, 1152.6472222222221, V
415208, 1153.3555555555556, e
415515, 1154.2083333333333, N
415707, 1154.7416666666666, a
415992, 1155.5333333333333, N
416253, 1156.2583333333334, N
416508, 1156.9666666666667, N
416762, 1157.6722222222222, N
417015, 1158.375, N
417271, 1159.0861111111112, N
417528, 1159.8, N
417776, 1160.4888888888888, N
418026, 1161.1833333333334, N
418286, 1161.9055555555556, N
418538, 1162.6055555555556, N
418786, 1163.2944444444445, N
419030, 1163.9722222222222, N
419284, 1164.6777777777777, N
419535, 1165.375, N
419782, 1166.0611111111111, N
420035, 1166.763888888889, N
420278, 1167.4388888888889, N
420522, 1168.1166666666666, N
420778, 1168.8277777777778, N
421026, 1169.5166666666667, N
421263, 1170.175, N
421509, 1170.8583333333333, N
421754, 1171.5388888888888, N
422012, 1172.2555555555555, N
422264, 1172.9555555555555, N
422518, 1173.661111111111, N
422767, 1174.3527777777779, N
423023, 1175.0638888888889, N
423279, 1175.775, N
423530, 1176.4722222222222, N
423772, 1177.1444444444444, N
424021, 1177.8361111111112, N
424269, 1178.525, N
424457, 1179.0472222222222, A
424732, 1179.8111111111111, N
424904, 1180.2888888888888, V
425166, 1181.0166666666667, V
425512, 1181.9777777777779, N
425769, 1182.6916666666666, N
426016, 1183.3777777777777, N
426262, 1184.0611111111111, N
426509, 1184.7472222222223, N
426757, 1185.4361111111111, N
427007, 1186.1305555555555, N
427253, 1186.8138888888889, N
427499, 1187.4972222222223, N
427746, 1188.1833333333334, N
428004, 1188.9, N
428247, 1189.575, N
428490, 1190.25, N
428740, 1190.9444444444443, N
428982, 1191.6166666666666, N
429231, 1192.3083333333334, N
429485, 1193.013888888889, N
429723, 1193.675, N
429965, 1194.3472222222222, N
430219, 1195.0527777777777, N
430479, 1195.775, N
430733, 1196.4805555555556, N
430973, 1197.1472222222221, N
431231, 1197.8638888888888, N
431478, 1198.55, N
431734, 1199.2611111111112, N
431988, 1199.9666666666667, N
432236, 1200.6555555555556, N
432482, 1201.338888888889, N
432740, 1202.0555555555557, N
432995, 1202.763888888889, N
433243, 1203.4527777777778, N
433491, 1204.1416666666667, N
433739, 1204.8305555555555, N
433994, 1205.5388888888888, N
434241, 1206.225, N
434487, 1206.9083333333333, N
434730, 1207.5833333333333, N
434977, 1208.2694444444444, N
435233, 1208.9805555555556, N
435482, 1209.6722222222222, N
435724, 1210.3444444444444, N
435971, 1211.0305555555556, N
436222, 1211.7277777777779, N
436474, 1212.4277777777777, N
436726, 1213.1277777777777, N
436969, 1213.8027777777777, N
437220, 1214.5, N
437465, 1215.1805555555557, N
437716, 1215.8777777777777, N
437964, 1216.5666666666666, N
438207, 1217.2416666666666, N
438457, 1217.9361111111111, N
438708, 1218.6333333333334, N
438965, 1219.3472222222222, N
439219, 1220.0527777777777, N
439465, 1220.736111111111, N
439720, 1221.4444444444443, N
439977, 1222.1583333333333, N
440228, 1222.8555555555556, N
440476, 1223.5444444444445, N
440722, 1224.2277777777779, N
440974, 1224.9277777777777, N
441229, 1225.6361111111112, N
441485, 1226.3472222222222, N
441730, 1227.0277777777778, N
441976, 1227.7111111111112, N
442221, 1228.3916666666667, N
442480, 1229.111111111111, N
442724, 1229.7888888888888, N
442962, 1230.45, N
443209, 1231.1361111111112, N
443459, 1231.8305555555555, N
443712, 1232.5333333333333, N
443969, 1233.2472222222223, N
444220, 1233.9444444444443, N
444467, 1234.6305555555555, N
444719, 1235.3305555555555, N
444982, 1236.0611111111111, N
445229, 1236.7472222222223, N
445472, 1237.4222222222222, N
445723, 1238.1194444444445, N
445971, 1238.8083333333334, N
446229, 1239.525, N
446488, 1240.2444444444445, N
446734, 1240.9277777777777, N
446983, 1241.6194444444445, N
447239, 1242.3305555555555, N
447499, 1243.0527777777777, N
447752, 1243.7555555555555, N
447996, 1244.4333333333334, N
448251, 1245.1416666666667, N
448499, 1245.8305555555555, N
448754, 1246.5388888888888, N
449008, 1247.2444444444445, N
449262, 1247.95, N
449506, 1248.6277777777777, N
449768, 1249.3555555555556, N
450023, 1250.0638888888889, N
450270, 1250.75, N
450510, 1251.4166666666667, N
450760, 1252.111111111111, N
451003, 1252.786111111111, N
451254, 1253.4833333333333, N
451498, 1254.161111111111, N
451747, 1254.8527777777779, N
451994, 1255.5388888888888, N
452255, 1256.263888888889, N
452502, 1256.95, N
452753, 1257.6472222222221, N
452999, 1258.3305555555555, N
453250, 1259.0277777777778, N
453505, 1259.736111111111, N
453758, 1260.4388888888889, N
454004, 1261.1222222222223, N
454258, 1261.8277777777778, N
454514, 1262.5388888888888, N
454773, 1263.2583333333334, N
454986, 1263.85, A
455244, 1264.5666666666666, e
455521, 1265.3361111111112, N
455768, 1266.0222222222221, N
456031, 1266.7527777777777, N
456287, 1267.463888888889, N
456538, 1268.161111111111, N
456783, 1268.8416666666667, N
457046, 1269.5722222222223, N
457299, 1270.275, N
457547, 1270.963888888889, N
457794, 1271.65, N
458040, 1272.3333333333333, N
458287, 1273.0194444444444, N
458535, 1273.7083333333333, N
458782, 1274.3944444444444, N
459027, 1275.075, N
459270, 1275.75, N
459530, 1276.4722222222222, N
459778, 1277.161111111111, N
460019, 1277.8305555555555, N
460272, 1278.5333333333333, N
460520, 1279.2222222222222, N
460776, 1279.9333333333334, N
461030, 1280.638888888889, N
461277, 1281.325, N
461521, 1282.0027777777777, N
461777, 1282.713888888889, N
462036, 1283.4333333333334, N
462292, 1284.1444444444444, N
462538, 1284.8277777777778, N
462796, 1285.5444444444445, N
463048, 1286.2444444444445, N
463301, 1286.9472222222223, N
463547, 1287.6305555555555, N
463792, 1288.3111111111111, N
464036, 1288.9888888888888, N
464290, 1289.6944444444443, N
464536, 1290.3777777777777, N
464780, 1291.0555555555557, N
464969, 1291.5805555555555, A
465146, 1292.0722222222223, +
465246, 1292.35, N
465425, 1292.8472222222222, V
465731, 1293.6972222222223, N
465907, 1294.1861111111111, V
466270, 1295.1944444444443, N
466446, 1295.6833333333334, V
466786, 1296.6277777777777, N
466962, 1297.1166666666666, V
467294, 1298.0388888888888, N
467465, 1298.513888888889, V
467800, 1299.4444444444443, N
467973, 1299.925, V
468307, 1300.8527777777779, N
468480, 1301.3333333333333, V
468803, 1302.2305555555556, N
468985, 1302.736111111111, V
469316, 1303.6555555555556, N
469492, 1304.1444444444444, V
469817, 1305.0472222222222, N
469999, 1305.5527777777777, V
470328, 1306.4666666666667, N
470507, 1306.963888888889, V
470836, 1307.8777777777777, N
471008, 1308.3555555555556, V
471327, 1309.2416666666666, N
471513, 1309.7583333333334, V
471828, 1310.6333333333334, N
471997, 1311.1027777777779, V
472314, 1311.9833333333333, N
472493, 1312.4805555555556, V
472811, 1313.3638888888888, N
472992, 1313.8666666666666, V
473312, 1314.7555555555555, N
473482, 1315.2277777777779, V
473803, 1316.1194444444445, N
473986, 1316.6277777777777, V
474272, 1317.4222222222222, N
474440, 1317.888888888889, V
474797, 1318.8805555555555, N
474976, 1319.3777777777777, V
475312, 1320.3111111111111, N
475497, 1320.825, V
475819, 1321.7194444444444, N
475995, 1322.2083333333333, V
476323, 1323.1194444444445, N
476500, 1323.611111111111, V
476817, 1324.4916666666666, N
476986, 1324.9611111111112, V
477311, 1325.8638888888888, N
477487, 1326.3527777777779, V
477810, 1327.25, N
477986, 1327.7388888888888, V
478300, 1328.611111111111, N
478480, 1329.111111111111, V
478803, 1330.0083333333334, N
478982, 1330.5055555555555, V
479297, 1331.3805555555555, N
479473, 1331.8694444444445, V
479796, 1332.7666666666667, N
479976, 1333.2666666666667, V
480301, 1334.1694444444445, N
480477, 1334.6583333333333, V
480795, 1335.5416666666667, N
480974, 1336.0388888888888, V
481301, 1336.9472222222223, N
481478, 1337.4388888888889, V
481786, 1338.2944444444445, N
481960, 1338.7777777777778, V
482284, 1339.6777777777777, N
482464, 1340.1777777777777, V
482795, 1341.0972222222222, N
482981, 1341.6138888888888, F
483279, 1342.4416666666666, N
483466, 1342.9611111111112, V
483800, 1343.888888888889, N
483977, 1344.3805555555555, V
484284, 1345.2333333333333, N
484458, 1345.7166666666667, V
484721, 1346.4472222222223, N
484912, 1346.9777777777779, A
485217, 1347.825, N
485398, 1348.3277777777778, V
485728, 1349.2444444444445, N
485908, 1349.7444444444445, V
486247, 1350.6861111111111, N
486427, 1351.1861111111111, V
486740, 1352.0555555555557, N
486918, 1352.55, V
487238, 1353.4388888888889, N
487428, 1353.9666666666667, V
487752, 1354.8666666666666, N
487932, 1355.3666666666666, V
488255, 1356.263888888889, N
488437, 1356.7694444444444, V
488771, 1357.6972222222223, N
488951, 1358.1972222222223, V
489270, 1359.0833333333333, N
489445, 1359.5694444444443, V
489770, 1360.4722222222222, N
489947, 1360.963888888889, V
490271, 1361.8638888888888, N
490449, 1362.3583333333333, V
490771, 1363.2527777777777, N
490956, 1363.7666666666667, V
491282, 1364.6722222222222, N
491464, 1365.1777777777777, V
491777, 1366.0472222222222, N
491961, 1366.5583333333334, V
492285, 1367.4583333333333, N
492477, 1367.9916666666666, V
492794, 1368.8722222222223, N
492969, 1369.3583333333333, V
493307, 1370.2972222222222, N
493495, 1370.8194444444443, V
493811, 1371.6972222222223, N
493991, 1372.1972222222223, V
494310, 1373.0833333333333, N
494481, 1373.5583333333334, V
494816, 1374.4888888888888, N
494994, 1374.9833333333333, V
495316, 1375.8777777777777, N
495491, 1376.3638888888888, V
495825, 1377.2916666666667, N
496006, 1377.7944444444445, V
496314, 1378.65, N
496493, 1379.1472222222221, V
496805, 1380.013888888889, N
496989, 1380.525, V
497295, 1381.375, N
497475, 1381.875, V
497781, 1382.725, N
497960, 1383.2222222222222, V
498280, 1384.111111111111, N
498458, 1384.6055555555556, V
498763, 1385.4527777777778, N
498933, 1385.925, V
499249, 1386.8027777777777, N
499430, 1387.3055555555557, V
499725, 1388.125, N
499899, 1388.6083333333333, V
500234, 1389.5388888888888, N
500414, 1390.0388888888888, V
500751, 1390.975, N
500933, 1391.4805555555556, V
501244, 1392.3444444444444, N
501421, 1392.8361111111112, V
501743, 1393.7305555555556, N
501923, 1394.2305555555556, V
502235, 1395.0972222222222, N
502407, 1395.575, V
502724, 1396.4555555555555, N
502904, 1396.9555555555555, V
503213, 1397.8138888888889, N
503391, 1398.3083333333334, V
503695, 1399.1527777777778, N
503883, 1399.675, V
504184, 1400.5111111111112, N
504358, 1400.9944444444445, V
504670, 1401.861111111111, N
504849, 1402.3583333333333, V
505151, 1403.1972222222223, N
505336, 1403.7111111111112, V
505643, 1404.5638888888889, N
505821, 1405.0583333333334, V
506126, 1405.9055555555556, N
506316, 1406.4333333333334, V
506620, 1407.2777777777778, N
506797, 1407.7694444444444, V
507117, 1408.6583333333333, N
507291, 1409.1416666666667, V
507600, 1410.0, N
507788, 1410.5222222222221, V
508103, 1411.3972222222221, N
508272, 1411.8666666666666, V
508588, 1412.7444444444445, N
508771, 1413.2527777777777, V
509096, 1414.1555555555556, N
509275, 1414.6527777777778, V
509593, 1415.536111111111, N
509773, 1416.036111111111, V
510076, 1416.8777777777777, N
510271, 1417.4194444444445, V
510576, 1418.2666666666667, N
510748, 1418.7444444444445, V
511066, 1419.6277777777777, N
511242, 1420.1166666666666, V
511564, 1421.0111111111112, N
511749, 1421.525, V
512059, 1422.3861111111112, N
512239, 1422.8861111111112, V
512554, 1423.7611111111112, N
512745, 1424.2916666666667, V
513057, 1425.1583333333333, N
513234, 1425.65, V
513560, 1426.5555555555557, N
513737, 1427.0472222222222, V
514070, 1427.9722222222222, N
514257, 1428.4916666666666, V
514577, 1429.3805555555555, N
514755, 1429.875, V
515082, 1430.7833333333333, N
515269, 1431.3027777777777, V
515588, 1432.1888888888889, N
515760, 1432.6666666666667, V
516088, 1433.5777777777778, N
516264, 1434.0666666666666, V
516592, 1434.9777777777779, N
516776, 1435.4888888888888, V
517085, 1436.3472222222222, N
517262, 1436.838888888889, V
517592, 1437.7555555555555, N
517776, 1438.2666666666667, V
518085, 1439.125, N
518262, 1439.6166666666666, V
518593, 1440.536111111111, N
518772, 1441.0333333333333, V
519103, 1441.9527777777778, N
519178, 1442.161111111111, +
519278, 1442.4388888888889, V
519583, 1443.286111111111, V
519767, 1443.7972222222222, V
520002, 1444.45, +
520108, 1444.7444444444445, N
520287, 1445.2416666666666, V
520599, 1446.1083333333333, N
520780, 1446.611111111111, V
521100, 1447.5, N
521280, 1448.0, V
521445, 1448.4583333333333, +
521611, 1448.9194444444445, N
521858, 1449.6055555555556, N
522047, 1450.1305555555555, V
522351, 1450.975, N
522600, 1451.6666666666667, N
522844, 1452.3444444444444, N
523081, 1453.0027777777777, N
523326, 1453.6833333333334, N
523565, 1454.3472222222222, N
523812, 1455.0333333333333, N
524059, 1455.7194444444444, N
524303, 1456.3972222222221, N
524538, 1457.05, N
524785, 1457.736111111111, N
525031, 1458.4194444444445, N
525277, 1459.1027777777779, N
525510, 1459.75, N
525750, 1460.4166666666667, N
525992, 1461.088888888889, N
526238, 1461.7722222222221, N
526483, 1462.4527777777778, N
526735, 1463.1527777777778, N
526975, 1463.8194444444443, N
527231, 1464.5305555555556, N
527479, 1465.2194444444444, N
527725, 1465.9027777777778, N
527973, 1466.5916666666667, N
528217, 1467.2694444444444, N
528464, 1467.9555555555555, N
528718, 1468.661111111111, N
528958, 1469.3277777777778, N
529199, 1469.9972222222223, N
529450, 1470.6944444444443, N
529706, 1471.4055555555556, N
529953, 1472.0916666666667, N
530194, 1472.7611111111112, N
530441, 1473.4472222222223, N
530688, 1474.1333333333334, N
530940, 1474.8333333333333, N
531196, 1475.5444444444445, N
531440, 1476.2222222222222, N
531681, 1476.8916666666667, N
531938, 1477.6055555555556, N
532193, 1478.3138888888889, N
532447, 1479.0194444444444, N
532686, 1479.6833333333334, N
532944, 1480.4, N
533188, 1481.0777777777778, N
533446, 1481.7944444444445, N
533697, 1482.4916666666666, N
533944, 1483.1777777777777, N
534197, 1483.8805555555555, N
534464, 1484.6222222222223, N
534722, 1485.338888888889, N
534968, 1486.0222222222221, N
535231, 1486.7527777777777, N
535488, 1487.4666666666667, N
535686, 1488.0166666666667, A
535973, 1488.8138888888889, e
536156, 1489.3222222222223, V
536410, 1490.0277777777778, V
536777, 1491.0472222222222, N
536963, 1491.5638888888889, V
537257, 1492.3805555555555, V
537533, 1493.1472222222221, N
537786, 1493.85, N
538037, 1494.5472222222222, N
538291, 1495.2527777777777, N
538464, 1495.7333333333333, A
538740, 1496.5, N
538915, 1496.986111111111, V
539205, 1497.7916666666667, V
539519, 1498.6638888888888, N
539768, 1499.3555555555556, N
540019, 1500.0527777777777, N
540267, 1500.7416666666666, N
540514, 1501.4277777777777, N
540770, 1502.138888888889, N
541010, 1502.8055555555557, N
541241, 1503.4472222222223, N
541484, 1504.1222222222223, N
541733, 1504.8138888888889, N
541972, 1505.4777777777779, N
542202, 1506.1166666666666, N
542448, 1506.8, N
542676, 1507.4333333333334, N
542936, 1508.1555555555556, N
543187, 1508.8527777777779, N
543420, 1509.5, V
543672, 1510.2, N
543923, 1510.8972222222221, N
544175, 1511.5972222222222, N
544417, 1512.2694444444444, N
544651, 1512.9194444444445, F
544903, 1513.6194444444445, N
545097, 1514.1583333333333, A
545373, 1514.925, N
545556, 1515.4333333333334, V
545806, 1516.1277777777777, V
546137, 1517.0472222222222, N
546392, 1517.7555555555555, N
546602, 1518.338888888889, V
546891, 1519.1416666666667, N
547131, 1519.8083333333334, N
547359, 1520.4416666666666, V
547620, 1521.1666666666667, N
547874, 1521.8722222222223, N
548125, 1522.5694444444443, N
548378, 1523.2722222222221, N
548617, 1523.9361111111111, N
548864, 1524.6222222222223, N
549124, 1525.3444444444444, N
549345, 1525.9583333333333, V
549613, 1526.7027777777778, N
549863, 1527.3972222222221, N
550066, 1527.9611111111112, V
550360, 1528.7777777777778, N
550607, 1529.463888888889, e
550793, 1529.9805555555556, V
551089, 1530.8027777777777, e
551280, 1531.3333333333333, V
551533, 1532.036111111111, V
551901, 1533.0583333333334, N
552087, 1533.575, V
552370, 1534.361111111111, V
552713, 1535.3138888888889, N
552988, 1536.0777777777778, N
553240, 1536.7777777777778, N
553496, 1537.4888888888888, N
553752, 1538.2, N
554012, 1538.9222222222222, N
554260, 1539.611111111111, N
554505, 1540.2916666666667, N
554756, 1540.9888888888888, N
555005, 1541.6805555555557, N
555198, 1542.2166666666667, V
555517, 1543.1027777777779, N
555771, 1543.8083333333334, N
555954, 1544.3166666666666, V
556281, 1545.225, N
556537, 1545.9361111111111, N
556704, 1546.4, V
557045, 1547.3472222222222, N
557230, 1547.861111111111, V
557513, 1548.6472222222221, V
557837, 1549.5472222222222, N
558080, 1550.2222222222222, V
558269, 1550.7472222222223, N
558406, 1551.1277777777777, +
558527, 1551.463888888889, V
558716, 1551.9888888888888, V
558951, 1552.6416666666667, V
559126, 1553.1277777777777, V
559345, 1553.736111111111, V
559599, 1554.4416666666666, +
559741, 1554.8361111111112, e
560073, 1555.7583333333334, N
560279, 1556.3305555555555, V
560635, 1557.3194444444443, N
560905, 1558.0694444444443, N
561102, 1558.6166666666666, V
561444, 1559.5666666666666, N
561695, 1560.263888888889, N
561887, 1560.7972222222222, V
562211, 1561.6972222222223, N
562470, 1562.4166666666667, N
562670, 1562.9722222222222, V
562970, 1563.8055555555557, N
563214, 1564.4833333333333, N
563414, 1565.0388888888888, V
563711, 1565.8638888888888, N
563960, 1566.5555555555557, N
564156, 1567.1, V
564449, 1567.9138888888888, N
564702, 1568.6166666666666, N
564891, 1569.1416666666667, V
565007, 1569.463888888889, +
565124, 1569.7888888888888, N
565408, 1570.5777777777778, N
565673, 1571.3138888888889, N
565935, 1572.0416666666667, N
566184, 1572.7333333333333, N
566424, 1573.4, N
566668, 1574.0777777777778, N
566908, 1574.7444444444445, N
567152, 1575.4222222222222, N
567403, 1576.1194444444445, N
567634, 1576.7611111111112, N
567869, 1577.4138888888888, N
568114, 1578.0944444444444, N
568366, 1578.7944444444445, N
568603, 1579.4527777777778, N
568837, 1580.1027777777779, N
569075, 1580.763888888889, N
569316, 1581.4333333333334, N
569557, 1582.1027777777779, N
569809, 1582.8027777777777, N
570048, 1583.4666666666667, N
570287, 1584.1305555555555, N
570536, 1584.8222222222223, N
570790, 1585.5277777777778, N
571042, 1586.2277777777779, N
571282, 1586.8944444444444, N
571530, 1587.5833333333333, N
571778, 1588.2722222222221, N
572029, 1588.9694444444444, N
572278, 1589.661111111111, N
572530, 1590.361111111111, N
572773, 1591.036111111111, N
573024, 1591.7333333333333, N
573276, 1592.4333333333334, N
573524, 1593.1222222222223, N
573771, 1593.8083333333334, N
574023, 1594.5083333333334, N
574278, 1595.2166666666667, N
574539, 1595.9416666666666, N
574793, 1596.6472222222221, N
575049, 1597.3583333333333, N
575312, 1598.088888888889, N
575585, 1598.8472222222222, N
575802, 1599.45, A
576029, 1600.0805555555555, A
576357, 1600.9916666666666, N
576580, 1601.611111111111, V
576903, 1602.5083333333334, N
577089, 1603.025, V
577351, 1603.7527777777777, V
577698, 1604.7166666666667, N
577970, 1605.4722222222222, N
578224, 1606.1777777777777, N
578480, 1606.888888888889, N
578733, 1607.5916666666667, N
578988, 1608.3, N
579239, 1608.9972222222223, N
579503, 1609.7305555555556, N
579748, 1610.411111111111, N
579996, 1611.1, N
580258, 1611.8277777777778, N
580510, 1612.5277777777778, N
580742, 1613.1722222222222, N
581002, 1613.8944444444444, N
581261, 1614.6138888888888, N
581508, 1615.3, N
581762, 1616.0055555555555, N
582013, 1616.7027777777778, N
582268, 1617.411111111111, N
582511, 1618.0861111111112, N
582777, 1618.825, N
583030, 1619.5277777777778, N
583277, 1620.213888888889, N
583525, 1620.9027777777778, N
583777, 1621.6027777777779, N
584026, 1622.2944444444445, N
584276, 1622.9888888888888, N
584517, 1623.6583333333333, N
584762, 1624.338888888889, N
585004, 1625.0111111111112, N
585259, 1625.7194444444444, N
585509, 1626.4138888888888, N
585749, 1627.0805555555555, N
585997, 1627.7694444444444, N
586250, 1628.4722222222222, N
586501, 1629.1694444444445, N
586754, 1629.8722222222223, N
586935, 1630.375, A
587214, 1631.15, N
587393, 1631.6472222222221, V
587660, 1632.388888888889, V
587993, 1633.3138888888889, N
588240, 1634.0, N
588491, 1634.6972222222223, N
588736, 1635.3777777777777, N
588993, 1636.0916666666667, N
589244, 1636.7888888888888, N
589488, 1637.4666666666667, N
589728, 1638.1333333333334, N
589980, 1638.8333333333333, N
590227, 1639.5194444444444, N
590472, 1640.2, N
590646, 1640.6833333333334, A
590916, 1641.4333333333334, N
591091, 1641.9194444444445, V
591360, 1642.6666666666667, V
591679, 1643.5527777777777, N
591929, 1644.2472222222223, N
592168, 1644.911111111111, N
592390, 1645.5277777777778, A
592658, 1646.2722222222221, e
592914, 1646.9833333333333, N
593156, 1647.6555555555556, N
593399, 1648.3305555555555, N
593638, 1648.9944444444445, N
593886, 1649.6833333333334, N
594139, 1650.3861111111112, N
594383, 1651.0638888888889, N
594566, 1651.5722222222223, A
594855, 1652.375, N
595042, 1652.8944444444444, V
595285, 1653.5694444444443, V
595631, 1654.5305555555556, N
595718, 1654.7722222222221, +
595825, 1655.0694444444443, V
596132, 1655.9222222222222, V
596304, 1656.4, V
596544, 1657.0666666666666, +
596654, 1657.3722222222223, N
596825, 1657.8472222222222, V
597159, 1658.775, N
597342, 1659.2833333333333, V
597665, 1660.1805555555557, N
597834, 1660.65, V
598152, 1661.5333333333333, N
598322, 1662.0055555555555, V
598648, 1662.911111111111, N
598829, 1663.4138888888888, V
599145, 1664.2916666666667, N
599314, 1664.7611111111112, V
599646, 1665.6833333333334, N
599825, 1666.1805555555557, V
600155, 1667.0972222222222, N
600331, 1667.5861111111112, V
600649, 1668.4694444444444, N
600825, 1668.9583333333333, V
601155, 1669.875, N
601330, 1670.361111111111, V
601640, 1671.2222222222222, N
601819, 1671.7194444444444, V
602153, 1672.6472222222221, N
602329, 1673.1361111111112, V
602646, 1674.0166666666667, N
602824, 1674.5111111111112, V
603138, 1675.3833333333334, N
603319, 1675.8861111111112, V
603642, 1676.7833333333333, N
603818, 1677.2722222222221, V
604121, 1678.1138888888888, N
604305, 1678.625, V
604623, 1679.5083333333334, N
604805, 1680.013888888889, V
605111, 1680.8638888888888, N
605289, 1681.3583333333333, V
605598, 1682.2166666666667, N
605774, 1682.7055555555555, V
606092, 1683.588888888889, N
606272, 1684.088888888889, V
606574, 1684.9277777777777, N
606749, 1685.4138888888888, V
607068, 1686.3, N
607251, 1686.8083333333334, V
607559, 1687.6638888888888, N
607739, 1688.1638888888888, V
608056, 1689.0444444444445, N
608233, 1689.536111111111, V
608557, 1690.4361111111111, N
608740, 1690.9444444444443, V
609045, 1691.7916666666667, N
609233, 1692.3138888888889, V
609547, 1693.1861111111111, N
609727, 1693.6861111111111, V
610032, 1694.5333333333333, N
610218, 1695.05, V
610533, 1695.925, N
610716, 1696.4333333333334, V
611028, 1697.3, N
611209, 1697.8027777777777, V
611526, 1698.6833333333334, N
611714, 1699.2055555555555, V
612012, 1700.0333333333333, N
612196, 1700.5444444444445, V
612503, 1701.3972222222221, N
612690, 1701.9166666666667, V
613012, 1702.8111111111111, N
613197, 1703.325, V
613502, 1704.1722222222222, N
613681, 1704.6694444444445, V
613992, 1705.5333333333333, N
614182, 1706.0611111111111, V
614487, 1706.9083333333333, N
614664, 1707.4, V
614967, 1708.2416666666666, N
615148, 1708.7444444444445, V
615454, 1709.5944444444444, N
615639, 1710.1083333333333, V
615951, 1710.975, N
616123, 1711.4527777777778, V
616443, 1712.3416666666667, N
616627, 1712.8527777777779, V
616915, 1713.6527777777778, e
617075, 1714.0972222222222, +
617180, 1714.388888888889, N
617432, 1715.088888888889, N
617677, 1715.7694444444444, N
617924, 1716.4555555555555, N
618186, 1717.1833333333334, N
618429, 1717.8583333333333, N
618628, 1718.411111111111, A
618911, 1719.1972222222223, N
619188, 1719.9666666666667, N
619442, 1720.6722222222222, N
619690, 1721.361111111111, N
619938, 1722.05, N
620118, 1722.55, A
620352, 1723.2, V
620676, 1724.1, N
620934, 1724.8166666666666, N
621182, 1725.5055555555555, N
621443, 1726.2305555555556, N
621701, 1726.9472222222223, N
621953, 1727.6472222222221, N
622197, 1728.325, N
622448, 1729.0222222222221, N
622698, 1729.7166666666667, N
622946, 1730.4055555555556, N
623200, 1731.111111111111, N
623448, 1731.8, N
623694, 1732.4833333333333, N
623952, 1733.2, N
624206, 1733.9055555555556, N
624453, 1734.5916666666667, N
624702, 1735.2833333333333, N
624953, 1735.9805555555556, N
625206, 1736.6833333333334, N
625465, 1737.4027777777778, N
625714, 1738.0944444444444, N
625961, 1738.7805555555556, N
626221, 1739.5027777777777, N
626479, 1740.2194444444444, N
626733, 1740.925, N
626918, 1741.4388888888889, A
627199, 1742.2194444444444, N
627376, 1742.7111111111112, V
627622, 1743.3944444444444, V
627979, 1744.3861111111112, N
628158, 1744.8833333333334, V
628447, 1745.6861111111111, V
628741, 1746.5027777777777, N
628991, 1747.1972222222223, N
629235, 1747.875, N
629482, 1748.5611111111111, N
629726, 1749.2388888888888, N
629978, 1749.9388888888889, N
630232, 1750.6444444444444, N
630475, 1751.3194444444443, N
630716, 1751.9888888888888, N
630968, 1752.6888888888889, N
631221, 1753.3916666666667, N
631471, 1754.0861111111112, N
631715, 1754.763888888889, N
631968, 1755.4666666666667, N
632214, 1756.15, N
632463, 1756.8416666666667, N
632715, 1757.5416666666667, N
632908, 1758.0777777777778, A
633185, 1758.8472222222222, e
633372, 1759.3666666666666, V
633625, 1760.0694444444443, V
633962, 1761.0055555555555, N
634210, 1761.6944444444443, N
634414, 1762.2611111111112, A
634714, 1763.0944444444444, N
634907, 1763.6305555555555, V
635160, 1764.3333333333333, V
635473, 1765.2027777777778, N
635733, 1765.925, N
635989, 1766.6361111111112, N
636244, 1767.3444444444444, N
636489, 1768.025, N
636736, 1768.7111111111112, N
636979, 1769.3861111111112, N
637233, 1770.0916666666667, N
637479, 1770.775, N
637722, 1771.45, N
637970, 1772.138888888889, N
638218, 1772.8277777777778, N
638467, 1773.5194444444444, N
638718, 1774.2166666666667, N
638968, 1774.911111111111, N
639222, 1775.6166666666666, N
639473, 1776.3138888888889, N
639732, 1777.0333333333333, N
639983, 1777.7305555555556, N
640229, 1778.4138888888888, N
640487, 1779.1305555555555, N
640744, 1779.8444444444444, N
640995, 1780.5416666666667, N
641239, 1781.2194444444444, N
641497, 1781.9361111111111, N
641748, 1782.6333333333334, N
642006, 1783.35, N
642265, 1784.0694444444443, N
642520, 1784.7777777777778, N
642765, 1785.4583333333333, N
643023, 1786.175, N
643279, 1786.8861111111112, N
643527, 1787.575, N
643774, 1788.2611111111112, N
644028, 1788.9666666666667, N
644283, 1789.675, N
644532, 1790.3666666666666, N
644783, 1791.0638888888889, N
645030, 1791.75, N
645278, 1792.4388888888889, N
645534, 1793.15, N
645738, 1793.7166666666667, V
646029, 1794.525, N
646211, 1795.0305555555556, V
646454, 1795.7055555555555, V
646793, 1796.6472222222221, N
646985, 1797.1805555555557, V
647278, 1797.9944444444445, V
647563, 1798.786111111111, N
647819, 1799.4972222222223, N
648077, 1800.213888888889, N
648334, 1800.9277777777777, N
648586, 1801.6277777777777, N
648839, 1802.3305555555555, N
649091, 1803.0305555555556, N
649349, 1803.7472222222223, N
649599, 1804.4416666666666, N
649849, 1805.1361111111112, N
