27, 0.075, +
160, 0.4444444444444444, N
433, 1.2027777777777777, N
726, 2.0166666666666666, N
1061, 2.9472222222222224, N
1366, 3.7944444444444443, N
1651, 4.586111111111111, N
1935, 5.375, N
2223, 6.175, N
2499, 6.941666666666666, N
2793, 7.758333333333334, N
3094, 8.594444444444445, N
3402, 9.45, N
3694, 10.261111111111111, N
3986, 11.072222222222223, N
4275, 11.875, N
4542, 12.616666666666667, N
4820, 13.38888888888889, N
5006, 13.905555555555555, |
5106, 14.183333333333334, N
5442, 15.116666666666667, N
5608, 15.577777777777778, |
5783, 16.06388888888889, N
6048, 16.8, |
6085, 16.90277777777778, N
6192, 17.2, +
6299, 17.497222222222224, V
6635, 18.430555555555557, N
6823, 18.95277777777778, V
7197, 19.991666666666667, N
7415, 20.59722222222222, V
7825, 21.73611111111111, N
8026, 22.294444444444444, V
8394, 23.316666666666666, N
8582, 23.83888888888889, V
8931, 24.808333333333334, N
9130, 25.36111111111111, V
9504, 26.4, N
9710, 26.97222222222222, V
10098, 28.05, N
10306, 28.627777777777776, V
10656, 29.6, N
10844, 30.122222222222224, V
11199, 31.108333333333334, N
11392, 31.644444444444446, V
11776, 32.71111111111111, N
11992, 33.31111111111111, V
12198, 33.88333333333333, +
12404, 34.455555555555556, N
12713, 35.31388888888889, N
13012, 36.144444444444446, N
13287, 36.90833333333333, N
13574, 37.705555555555556, N
13896, 38.6, N
14237, 39.547222222222224, N
14568, 40.46666666666667, N
14897, 41.38055555555555, N
15190, 42.19444444444444, N
15465, 42.958333333333336, N
15755, 43.763888888888886, N
15804, 43.9, |
15851, 44.03055555555556, |
16103, 44.730555555555554, N
16157, 44.88055555555555, |
16309, 45.30277777777778, |
16404, 45.56666666666667, |
16478, 45.772222222222226, N
16823, 46.730555555555554, N
16997, 47.21388888888889, |
17076, 47.43333333333333, |
17113, 47.53611111111111, N
17394, 48.31666666666667, N
17680, 49.111111111111114, N
17996, 49.98888888888889, N
18362, 51.00555555555555, N
18690, 51.916666666666664, V
19125, 53.125, N
19408, 53.91111111111111, N
19694, 54.705555555555556, N
19903, 55.28611111111111, V
20157, 55.99166666666667, V
20749, 57.63611111111111, N
21122, 58.672222222222224, N
21438, 59.55, N
21556, 59.87777777777778, ~
21709, 60.30277777777778, N
21998, 61.105555555555554, N
22307, 61.96388888888889, N
22627, 62.852777777777774, N
22803, 63.34166666666667, ~
22860, 63.5, V
23284, 64.67777777777778, N
23602, 65.56111111111112, N
23892, 66.36666666666666, N
24076, 66.87777777777778, V
24472, 67.97777777777777, N
24678, 68.55, V
25110, 69.75, N
25421, 70.6138888888889, N
25734, 71.48333333333333, N
26021, 72.28055555555555, N
26303, 73.06388888888888, N
26585, 73.84722222222223, N
26887, 74.68611111111112, N
27224, 75.62222222222222, N
27556, 76.54444444444445, N
27890, 77.47222222222223, N
28169, 78.24722222222222, N
28451, 79.03055555555555, N
28736, 79.82222222222222, N
29035, 80.65277777777777, N
29353, 81.53611111111111, N
29658, 82.38333333333334, N
29871, 82.975, V
30246, 84.01666666666667, N
30533, 84.81388888888888, N
30828, 85.63333333333334, N
31127, 86.46388888888889, N
31432, 87.31111111111112, N
31735, 88.15277777777777, N
31940, 88.72222222222223, V
32328, 89.8, N
32511, 90.30833333333334, V
32890, 91.36111111111111, N
33181, 92.16944444444445, N
33480, 93.0, N
33580, 93.27777777777777, +
33680, 93.55555555555556, V
33948, 94.3, |
34117, 94.76944444444445, N
34334, 95.37222222222222, V
34639, 96.21944444444445, |
34721, 96.44722222222222, N
34908, 96.96666666666667, V
35291, 98.03055555555555, N
35500, 98.61111111111111, V
35937, 99.825, N
36184, 100.5111111111111, V
36598, 101.66111111111111, N
36709, 101.96944444444445, |
36805, 102.23611111111111, V
37183, 103.28611111111111, N
37416, 103.93333333333334, V
37881, 105.225, N
38144, 105.95555555555555, V
38590, 107.19444444444444, N
38801, 107.78055555555555, V
39170, 108.80555555555556, N
39371, 109.3638888888889, V
39838, 110.66111111111111, N
40109, 111.41388888888889, V
40304, 111.95555555555555, |
40353, 112.09166666666667, |
40568, 112.68888888888888, N
40807, 113.35277777777777, V
41012, 113.92222222222222, +
41218, 114.49444444444444, N
41564, 115.45555555555555, N
41998, 116.66111111111111, N
42409, 117.80277777777778, N
42762, 118.78333333333333, N
43084, 119.67777777777778, N
43389, 120.525, N
43703, 121.39722222222223, N
44076, 122.43333333333334, N
44468, 123.52222222222223, N
44807, 124.46388888888889, N
45113, 125.31388888888888, N
45416, 126.15555555555555, N
45734, 127.03888888888889, N
46055, 127.93055555555556, N
46399, 128.88611111111112, N
46520, 129.22222222222223, +
46642, 129.5611111111111, V
47068, 130.74444444444444, N
47276, 131.32222222222222, V
47648, 132.35555555555555, N
47879, 132.99722222222223, V
48067, 133.51944444444445, +
48256, 134.04444444444445, N
48568, 134.9111111111111, N
48899, 135.83055555555555, N
49220, 136.72222222222223, N
49519, 137.55277777777778, N
49790, 138.30555555555554, N
50075, 139.09722222222223, N
50374, 139.92777777777778, N
50671, 140.75277777777777, N
50995, 141.65277777777777, N
51314, 142.5388888888889, N
51615, 143.375, N
51886, 144.12777777777777, N
51985, 144.40277777777777, +
52084, 144.67777777777778, V
52480, 145.77777777777777, N
52689, 146.35833333333332, V
53114, 147.5388888888889, N
53319, 148.10833333333332, V
53521, 148.66944444444445, +
53724, 149.23333333333332, N
54009, 150.025, N
54295, 150.81944444444446, N
54520, 151.44444444444446, V
54936, 152.6, N
55260, 153.5, N
55564, 154.34444444444443, N
55876, 155.2111111111111, N
56181, 156.05833333333334, N
56387, 156.63055555555556, V
56745, 157.625, N
57027, 158.40833333333333, N
57316, 159.2111111111111, N
57606, 160.01666666666668, N
57829, 160.63611111111112, V
57996, 161.1, ~
58189, 161.63611111111112, N
58457, 162.38055555555556, N
58724, 163.12222222222223, N
58927, 163.6861111111111, V
59329, 164.80277777777778, N
59661, 165.725, N
59989, 166.63611111111112, N
60280, 167.44444444444446, N
60556, 168.2111111111111, N
60747, 168.74166666666667, V
61116, 169.76666666666668, N
61337, 170.38055555555556, V
61787, 171.63055555555556, N
62126, 172.57222222222222, N
62427, 173.40833333333333, N
62705, 174.18055555555554, N
62992, 174.9777777777778, N
63300, 175.83333333333334, N
63674, 176.87222222222223, N
64004, 177.7888888888889, N
64327, 178.6861111111111, N
64635, 179.54166666666666, N
64744, 179.84444444444443, |
64925, 180.34722222222223, N
65223, 181.175, N
65403, 181.675, ~
65572, 182.14444444444445, N
65866, 182.9611111111111, V
66266, 184.07222222222222, N
66600, 185.0, N
66919, 185.88611111111112, N
67214, 186.70555555555555, N
67530, 187.58333333333334, N
67871, 188.53055555555557, N
68108, 189.1888888888889, ~
68231, 189.53055555555557, N
68545, 190.40277777777777, N
68863, 191.2861111111111, N
69160, 192.11111111111111, N
69445, 192.90277777777777, N
69534, 193.15, ~
69655, 193.48611111111111, V
70062, 194.61666666666667, N
70411, 195.5861111111111, N
70750, 196.52777777777777, N
71059, 197.38611111111112, N
71335, 198.15277777777777, N
71612, 198.92222222222222, N
71914, 199.76111111111112, N
72210, 200.58333333333334, N
72476, 201.32222222222222, V
72875, 202.43055555555554, N
73178, 203.2722222222222, N
73457, 204.04722222222222, N
73729, 204.80277777777778, N
74030, 205.63888888888889, N
74350, 206.52777777777777, N
74704, 207.51111111111112, N
74966, 208.23888888888888, V
75348, 209.3, N
75631, 210.0861111111111, N
75911, 210.86388888888888, N
76205, 211.68055555555554, N
76541, 212.61388888888888, N
76884, 213.56666666666666, N
77211, 214.475, N
77515, 215.31944444444446, N
77814, 216.15, N
78011, 216.69722222222222, V
78389, 217.74722222222223, N
78590, 218.30555555555554, V
79001, 219.44722222222222, N
79310, 220.30555555555554, N
79613, 221.1472222222222, N
79806, 221.68333333333334, V
80151, 222.64166666666668, N
80440, 223.44444444444446, N
80724, 224.23333333333332, N
81043, 225.11944444444444, N
81390, 226.08333333333334, N
81727, 227.01944444444445, N
82008, 227.8, N
82272, 228.53333333333333, N
82467, 229.075, V
82857, 230.15833333333333, N
83078, 230.7722222222222, V
83525, 232.01388888888889, N
83868, 232.96666666666667, N
84157, 233.76944444444445, N
84427, 234.51944444444445, N
84738, 235.38333333333333, N
84968, 236.0222222222222, V
85403, 237.23055555555555, N
85715, 238.09722222222223, N
86038, 238.99444444444444, N
86316, 239.76666666666668, N
86587, 240.51944444444445, N
86881, 241.3361111111111, N
87188, 242.1888888888889, N
87530, 243.13888888888889, N
87863, 244.0638888888889, N
88224, 245.06666666666666, N
88580, 246.05555555555554, N
88884, 246.9, N
89191, 247.75277777777777, N
89525, 248.68055555555554, N
89879, 249.6638888888889, N
90222, 250.61666666666667, N
90502, 251.39444444444445, V
90927, 252.575, N
91233, 253.425, N
91543, 254.2861111111111, N
91877, 255.2138888888889, N
92234, 256.2055555555556, N
92569, 257.1361111111111, N
92897, 258.0472222222222, N
93191, 258.8638888888889, N
93486, 259.68333333333334, N
93778, 260.49444444444447, N
94087, 261.35277777777776, N
94406, 262.2388888888889, N
94706, 263.0722222222222, N
94995, 263.875, N
95280, 264.6666666666667, N
95577, 265.4916666666667, N
95796, 266.1, V
96210, 267.25, N
96517, 268.10277777777776, N
96808, 268.9111111111111, N
97094, 269.7055555555556, N
97386, 270.51666666666665, N
97677, 271.325, N
97976, 272.15555555555557, N
98298, 273.05, N
98597, 273.88055555555553, N
98898, 274.71666666666664, N
99199, 275.5527777777778, N
99491, 276.3638888888889, N
99584, 276.6222222222222, ~
99698, 276.93888888888887, V
100064, 277.9555555555556, N
100306, 278.6277777777778, V
100702, 279.72777777777776, N
101018, 280.60555555555555, N
101328, 281.46666666666664, N
101607, 282.2416666666667, N
101838, 282.8833333333333, ~
101884, 283.0111111111111, N
102163, 283.7861111111111, N
102470, 284.6388888888889, N
102779, 285.4972222222222, N
103096, 286.3777777777778, N
103386, 287.18333333333334, N
103663, 287.9527777777778, N
103937, 288.7138888888889, N
104223, 289.5083333333333, N
104540, 290.3888888888889, N
104773, 291.0361111111111, |
104860, 291.27777777777777, N
105162, 292.1166666666667, N
105451, 292.9194444444444, N
105654, 293.48333333333335, V
106047, 294.575, N
106354, 295.4277777777778, N
106652, 296.25555555555553, N
106978, 297.1611111111111, N
107290, 298.02777777777777, N
107485, 298.56944444444446, V
107889, 299.69166666666666, N
108179, 300.4972222222222, N
108481, 301.3361111111111, N
108771, 302.14166666666665, N
109090, 303.02777777777777, N
109411, 303.9194444444444, N
109628, 304.52222222222224, V
110002, 305.56111111111113, N
110188, 306.0777777777778, V
110568, 307.1333333333333, N
110867, 307.9638888888889, N
110940, 308.1666666666667, |
111184, 308.84444444444443, N
111361, 309.3361111111111, |
111425, 309.5138888888889, |
111525, 309.7916666666667, N
111838, 310.6611111111111, N
112133, 311.48055555555555, N
112394, 312.2055555555556, N
112678, 312.99444444444447, N
113004, 313.9, N
113312, 314.75555555555553, N
113621, 315.6138888888889, N
113920, 316.44444444444446, N
114213, 317.2583333333333, N
114476, 317.9888888888889, N
114749, 318.7472222222222, N
115063, 319.61944444444447, N
115386, 320.51666666666665, N
115701, 321.39166666666665, N
115998, 322.21666666666664, N
116187, 322.7416666666667, |
116300, 323.05555555555554, N
116378, 323.27222222222224, |
116594, 323.8722222222222, N
116872, 324.64444444444445, N
117150, 325.4166666666667, N
117457, 326.26944444444445, N
117763, 327.11944444444447, N
118053, 327.925, N
118247, 328.4638888888889, V
118652, 329.5888888888889, N
118919, 330.3305555555556, N
119182, 331.06111111111113, N
119461, 331.8361111111111, N
119786, 332.7388888888889, N
119994, 333.31666666666666, |
120093, 333.59166666666664, N
120400, 334.44444444444446, N
120677, 335.2138888888889, N
120941, 335.9472222222222, N
121210, 336.69444444444446, N
121483, 337.4527777777778, N
121784, 338.2888888888889, N
122124, 339.23333333333335, N
122441, 340.1138888888889, N
122736, 340.93333333333334, N
123018, 341.71666666666664, N
123297, 342.4916666666667, N
123399, 342.775, +
123501, 343.05833333333334, V
123880, 344.1111111111111, N
124101, 344.725, V
124494, 345.81666666666666, N
124708, 346.4111111111111, V
125078, 347.43888888888887, N
125269, 347.96944444444443, V
125629, 348.96944444444443, N
125828, 349.52222222222224, V
126214, 350.59444444444443, N
126430, 351.19444444444446, V
126849, 352.35833333333335, N
127063, 352.9527777777778, V
127428, 353.96666666666664, N
127617, 354.4916666666667, V
128000, 355.55555555555554, N
128214, 356.15, V
128744, 357.6222222222222, N
128996, 358.3222222222222, V
129411, 359.475, N
129610, 360.02777777777777, V
129984, 361.06666666666666, N
130242, 361.78333333333336, V
130826, 363.40555555555557, N
131119, 364.21944444444443, V
131547, 365.40833333333336, N
131738, 365.93888888888887, V
132103, 366.9527777777778, N
132308, 367.52222222222224, V
132760, 368.77777777777777, N
133009, 369.46944444444443, V
133499, 370.8305555555556, N
133723, 371.4527777777778, V
134138, 372.60555555555555, N
134345, 373.18055555555554, V
134760, 374.3333333333333, N
134995, 374.9861111111111, V
135490, 376.3611111111111, N
135732, 377.03333333333336, V
136139, 378.1638888888889, N
136337, 378.7138888888889, V
136725, 379.7916666666667, N
136943, 380.39722222222224, V
137355, 381.5416666666667, N
137613, 382.2583333333333, V
138087, 383.575, N
138293, 384.14722222222224, V
138664, 385.1777777777778, N
138864, 385.73333333333335, V
139263, 386.84166666666664, N
139476, 387.43333333333334, V
139929, 388.69166666666666, N
140146, 389.2944444444444, V
140519, 390.3305555555556, N
140713, 390.86944444444447, V
141113, 391.98055555555555, N
141327, 392.575, V
141746, 393.7388888888889, N
141966, 394.35, V
142382, 395.50555555555553, N
142580, 396.05555555555554, V
142952, 397.0888888888889, N
143167, 397.68611111111113, V
143583, 398.84166666666664, N
143795, 399.43055555555554, V
144195, 400.5416666666667, N
144433, 401.2027777777778, V
144831, 402.30833333333334, N
145029, 402.85833333333335, V
145406, 403.90555555555557, N
145628, 404.52222222222224, V
146029, 405.6361111111111, N
146241, 406.225, V
146669, 407.4138888888889, N
146871, 407.975, V
147235, 408.9861111111111, N
147434, 409.5388888888889, V
147841, 410.6694444444444, N
148074, 411.31666666666666, V
148457, 412.38055555555553, N
148675, 412.9861111111111, V
149063, 414.06388888888887, N
149259, 414.60833333333335, V
149629, 415.6361111111111, N
149849, 416.2472222222222, V
150245, 417.34722222222223, N
150455, 417.93055555555554, V
150867, 419.075, N
151103, 419.73055555555555, V
151501, 420.8361111111111, N
151708, 421.4111111111111, V
152103, 422.5083333333333, N
152326, 423.1277777777778, V
152743, 424.2861111111111, N
152995, 424.9861111111111, V
153410, 426.1388888888889, N
153613, 426.7027777777778, V
153979, 427.71944444444443, N
154196, 428.3222222222222, V
154638, 429.55, N
154871, 430.1972222222222, V
155077, 430.76944444444445, +
155284, 431.34444444444443, N
155591, 432.1972222222222, N
155895, 433.0416666666667, N
156192, 433.8666666666667, N
156533, 434.81388888888887, N
156888, 435.8, N
157065, 436.2916666666667, V
157507, 437.51944444444445, N
157816, 438.3777777777778, N
158133, 439.2583333333333, N
158436, 440.1, N
158757, 440.9916666666667, N
158970, 441.5833333333333, V
159388, 442.74444444444447, N
159574, 443.2611111111111, V
159975, 444.375, N
160286, 445.2388888888889, N
160590, 446.0833333333333, N
160902, 446.95, N
161207, 447.7972222222222, N
161425, 448.40277777777777, V
161842, 449.56111111111113, N
162150, 450.4166666666667, N
162445, 451.2361111111111, N
162745, 452.06944444444446, N
163046, 452.90555555555557, N
163260, 453.5, V
163686, 454.68333333333334, N
163985, 455.5138888888889, N
164270, 456.30555555555554, N
164562, 457.1166666666667, N
164871, 457.975, N
165189, 458.85833333333335, N
165395, 459.43055555555554, V
165824, 460.6222222222222, N
166119, 461.44166666666666, N
166400, 462.22222222222223, N
166696, 463.0444444444444, N
167003, 463.89722222222224, N
167209, 464.46944444444443, V
167624, 465.6222222222222, N
167935, 466.4861111111111, N
168254, 467.3722222222222, N
168542, 468.1722222222222, N
168836, 468.9888888888889, N
169130, 469.80555555555554, N
169337, 470.38055555555553, V
169736, 471.4888888888889, N
170054, 472.3722222222222, N
170376, 473.26666666666665, N
170662, 474.06111111111113, N
170948, 474.85555555555555, N
171247, 475.68611111111113, N
171576, 476.6, N
171899, 477.4972222222222, N
172217, 478.38055555555553, N
172522, 479.22777777777776, N
172824, 480.06666666666666, N
173121, 480.89166666666665, N
173441, 481.78055555555557, N
173774, 482.7055555555556, N
174110, 483.6388888888889, N
174433, 484.5361111111111, N
174757, 485.43611111111113, N
174866, 485.7388888888889, +
174976, 486.0444444444444, V
175431, 487.30833333333334, N
175644, 487.9, V
176094, 489.15, N
176315, 489.7638888888889, V
176758, 490.99444444444447, N
176970, 491.5833333333333, V
177384, 492.73333333333335, N
177623, 493.39722222222224, V
178101, 494.725, N
178373, 495.48055555555555, V
178880, 496.8888888888889, N
179107, 497.51944444444445, V
179493, 498.59166666666664, N
179702, 499.1722222222222, V
180190, 500.52777777777777, N
180433, 501.2027777777778, V
180896, 502.4888888888889, N
181116, 503.1, V
181507, 504.18611111111113, N
181705, 504.7361111111111, V
182174, 506.0388888888889, N
182443, 506.7861111111111, V
182903, 508.06388888888887, N
183132, 508.7, V
183526, 509.7944444444444, N
183716, 510.3222222222222, V
184119, 511.44166666666666, N
184357, 512.1027777777778, V
184839, 513.4416666666667, N
185054, 514.0388888888889, V
185483, 515.2305555555556, N
185699, 515.8305555555555, V
186092, 516.9222222222222, N
186293, 517.4805555555556, V
186723, 518.675, N
186971, 519.3638888888889, V
187395, 520.5416666666666, N
187614, 521.15, V
188007, 522.2416666666667, N
188200, 522.7777777777778, V
188391, 523.3083333333333, +
188582, 523.8388888888888, N
188931, 524.8083333333333, N
189310, 525.8611111111111, N
189644, 526.7888888888889, N
189945, 527.625, N
190232, 528.4222222222222, N
190517, 529.2138888888888, N
190820, 530.0555555555555, N
191168, 531.0222222222222, N
191517, 531.9916666666667, N
191826, 532.85, N
192130, 533.6944444444445, N
192322, 534.2277777777778, V
192709, 535.3027777777778, N
192909, 535.8583333333333, V
193307, 536.9638888888888, N
193641, 537.8916666666667, N
193954, 538.7611111111111, N
194254, 539.5944444444444, N
194534, 540.3722222222223, N
194823, 541.175, N
195003, 541.675, V
195435, 542.875, N
195821, 543.9472222222222, N
196161, 544.8916666666667, N
196349, 545.4138888888889, V
196743, 546.5083333333333, N
196959, 547.1083333333333, V
197339, 548.1638888888889, N
197686, 549.1277777777777, N
198071, 550.1972222222222, N
198395, 551.0972222222222, N
198687, 551.9083333333333, N
198978, 552.7166666666667, N
199283, 553.5638888888889, N
199605, 554.4583333333334, N
199835, 555.0972222222222, V
200269, 556.3027777777778, N
200594, 557.2055555555555, N
200894, 558.0388888888889, N
201185, 558.8472222222222, N
201408, 559.4666666666667, V
201780, 560.5, N
202093, 561.3694444444444, N
202452, 562.3666666666667, N
202803, 563.3416666666667, N
203017, 563.9361111111111, V
203374, 564.9277777777778, N
203667, 565.7416666666667, N
203976, 566.6, N
204285, 567.4583333333334, N
204628, 568.4111111111112, N
204970, 569.3611111111111, N
205262, 570.1722222222222, N
205534, 570.9277777777778, N
205732, 571.4777777777778, V
206139, 572.6083333333333, N
206343, 573.175, V
206759, 574.3305555555555, N
207075, 575.2083333333334, N
207363, 576.0083333333333, N
207636, 576.7666666666667, N
207838, 577.3277777777778, V
208223, 578.3972222222222, N
208545, 579.2916666666666, N
208852, 580.1444444444444, N
209180, 581.0555555555555, N
209489, 581.9138888888889, N
209769, 582.6916666666667, N
210054, 583.4833333333333, N
210354, 584.3166666666667, N
210668, 585.1888888888889, N
210971, 586.0305555555556, N
211175, 586.5972222222222, V
211616, 587.8222222222222, N
211811, 588.3638888888889, V
212185, 589.4027777777778, N
212487, 590.2416666666667, N
212816, 591.1555555555556, N
213134, 592.0388888888889, N
213448, 592.9111111111112, N
213744, 593.7333333333333, N
214029, 594.525, N
214306, 595.2944444444445, N
214602, 596.1166666666667, N
214922, 597.0055555555556, N
215232, 597.8666666666667, N
215527, 598.6861111111111, N
215845, 599.5694444444445, N
216143, 600.3972222222222, N
216427, 601.1861111111111, N
216716, 601.9888888888889, N
217024, 602.8444444444444, N
217339, 603.7194444444444, N
217647, 604.575, N
217973, 605.4805555555556, N
218279, 606.3305555555555, N
218566, 607.1277777777777, N
218754, 607.65, V
219167, 608.7972222222222, N
219516, 609.7666666666667, N
219854, 610.7055555555555, N
219961, 611.0027777777777, +
220068, 611.3, V
220459, 612.3861111111111, N
220652, 612.9222222222222, V
221041, 614.0027777777777, N
221250, 614.5833333333334, V
221597, 615.5472222222222, |
221694, 615.8166666666667, N
221933, 616.4805555555556, V
222151, 617.0861111111111, +
222370, 617.6944444444445, N
222678, 618.55, N
223003, 619.4527777777778, N
223337, 620.3805555555556, N
223663, 621.2861111111112, N
223983, 622.175, N
224191, 622.7527777777777, V
224630, 623.9722222222222, N
224922, 624.7833333333333, N
225223, 625.6194444444444, N
225542, 626.5055555555556, N
225851, 627.3638888888889, N
226171, 628.2527777777777, N
226520, 629.2222222222222, N
226848, 630.1333333333333, N
227128, 630.9111111111112, N
227417, 631.7138888888888, N
227609, 632.2472222222223, V
228040, 633.4444444444445, N
228356, 634.3222222222222, N
228673, 635.2027777777778, N
228976, 636.0444444444445, N
229261, 636.8361111111111, N
229561, 637.6694444444445, N
229890, 638.5833333333334, N
230219, 639.4972222222223, N
230525, 640.3472222222222, N
230831, 641.1972222222222, N
231134, 642.0388888888889, N
231433, 642.8694444444444, N
231737, 643.7138888888888, N
232058, 644.6055555555556, N
232381, 645.5027777777777, N
232685, 646.3472222222222, N
233004, 647.2333333333333, N
233321, 648.1138888888889, N
233631, 648.975, N
233838, 649.55, V
234251, 650.6972222222222, N
234455, 651.2638888888889, V
234884, 652.4555555555555, N
235219, 653.3861111111111, N
235516, 654.2111111111111, N
235814, 655.0388888888889, N
236115, 655.875, N
236451, 656.8083333333333, N
236779, 657.7194444444444, N
237097, 658.6027777777778, N
237400, 659.4444444444445, N
237702, 660.2833333333333, N
238006, 661.1277777777777, N
238306, 661.9611111111111, N
238624, 662.8444444444444, N
238955, 663.7638888888889, N
239272, 664.6444444444444, N
239596, 665.5444444444445, N
239909, 666.4138888888889, N
240124, 667.0111111111111, V
240533, 668.1472222222222, N
240868, 669.0777777777778, N
241183, 669.9527777777778, N
241511, 670.8638888888889, N
241841, 671.7805555555556, N
242139, 672.6083333333333, N
242348, 673.1888888888889, V
242754, 674.3166666666667, N
243105, 675.2916666666666, N
243435, 676.2083333333334, N
243541, 676.5027777777777, +
243648, 676.8, V
244058, 677.9388888888889, N
244283, 678.5638888888889, V
244689, 679.6916666666667, N
244919, 680.3305555555555, V
245381, 681.6138888888889, N
245605, 682.2361111111111, V
245812, 682.8111111111111, +
246020, 683.3888888888889, N
246321, 684.225, N
246638, 685.1055555555556, N
246970, 686.0277777777778, N
247287, 686.9083333333333, N
247611, 687.8083333333333, N
247928, 688.6888888888889, N
248236, 689.5444444444445, N
248543, 690.3972222222222, N
248853, 691.2583333333333, N
249173, 692.1472222222222, N
249481, 693.0027777777777, N
249827, 693.9638888888888, N
250160, 694.8888888888889, N
250267, 695.1861111111111, +
250374, 695.4833333333333, V
250763, 696.5638888888889, N
250958, 697.1055555555556, V
251367, 698.2416666666667, N
251581, 698.8361111111111, V
252013, 700.0361111111112, N
252222, 700.6166666666667, V
252612, 701.7, N
252803, 702.2305555555556, V
253211, 703.3638888888889, N
253425, 703.9583333333334, V
253842, 705.1166666666667, N
254058, 705.7166666666667, V
254474, 706.8722222222223, N
254664, 707.4, V
255046, 708.4611111111111, N
255251, 709.0305555555556, V
255675, 710.2083333333334, N
255917, 710.8805555555556, V
256320, 712.0, N
256539, 712.6083333333333, V
256952, 713.7555555555556, N
257149, 714.3027777777778, V
257528, 715.3555555555556, N
257731, 715.9194444444445, V
257935, 716.4861111111111, +
258139, 717.0527777777778, N
258457, 717.9361111111111, N
258785, 718.8472222222222, N
259079, 719.6638888888889, N
259356, 720.4333333333333, N
259641, 721.225, N
259963, 722.1194444444444, N
260294, 723.0388888888889, N
260617, 723.9361111111111, N
260926, 724.7944444444445, N
261226, 725.6277777777777, N
261503, 726.3972222222222, N
261709, 726.9694444444444, V
262127, 728.1305555555556, N
262469, 729.0805555555555, N
262800, 730.0, N
263113, 730.8694444444444, N
263438, 731.7722222222222, N
263736, 732.6, N
263912, 733.0888888888888, V
264344, 734.2888888888889, N
264685, 735.2361111111111, N
265000, 736.1111111111111, N
265314, 736.9833333333333, N
265623, 737.8416666666667, N
265906, 738.6277777777777, N
266202, 739.45, N
266512, 740.3111111111111, N
266918, 741.4388888888889, N
267132, 742.0333333333333, V
267590, 743.3055555555555, N
267882, 744.1166666666667, N
268172, 744.9222222222222, N
268469, 745.7472222222223, N
268787, 746.6305555555556, N
269176, 747.7111111111111, N
269520, 748.6666666666666, N
269824, 749.5111111111111, N
270117, 750.325, N
270441, 751.225, N
270775, 752.1527777777778, N
271113, 753.0916666666667, N
271465, 754.0694444444445, N
271799, 754.9972222222223, N
271961, 755.4472222222222, V
272395, 756.6527777777778, N
272709, 757.525, N
273020, 758.3888888888889, N
273346, 759.2944444444445, N
273706, 760.2944444444445, N
274049, 761.2472222222223, N
274356, 762.1, N
274649, 762.9138888888889, N
274733, 763.1472222222222, +
274817, 763.3805555555556, V
275273, 764.6472222222222, N
275480, 765.2222222222222, V
275991, 766.6416666666667, N
276204, 767.2333333333333, V
276600, 768.3333333333334, N
276791, 768.8638888888889, V
277227, 770.075, N
277447, 770.6861111111111, V
277922, 772.0055555555556, N
278156, 772.6555555555556, V
278578, 773.8277777777778, N
278769, 774.3583333333333, V
279176, 775.4888888888889, N
279391, 776.0861111111111, V
279817, 777.2694444444444, N
280034, 777.8722222222223, V
280490, 779.1388888888889, N
280700, 779.7222222222222, V
281082, 780.7833333333333, N
281278, 781.3277777777778, V
281684, 782.4555555555555, N
281890, 783.0277777777778, V
282335, 784.2638888888889, N
282583, 784.9527777777778, V
282983, 786.0638888888889, N
283174, 786.5944444444444, V
283571, 787.6972222222222, N
283806, 788.35, V
284283, 789.675, N
284541, 790.3916666666667, V
284980, 791.6111111111111, N
285178, 792.1611111111112, V
285563, 793.2305555555556, N
285776, 793.8222222222222, V
286236, 795.1, N
286462, 795.7277777777778, V
286891, 796.9194444444445, N
287114, 797.5388888888889, V
287311, 798.0861111111111, +
287508, 798.6333333333333, N
287807, 799.4638888888888, N
288111, 800.3083333333333, N
288442, 801.2277777777778, N
288763, 802.1194444444444, N
289122, 803.1166666666667, N
289352, 803.7555555555556, V
289746, 804.85, N
290043, 805.675, N
290355, 806.5416666666666, N
290687, 807.4638888888888, N
291009, 808.3583333333333, N
291343, 809.2861111111112, N
291531, 809.8083333333333, V
291925, 810.9027777777778, N
292213, 811.7027777777778, N
292525, 812.5694444444445, N
292862, 813.5055555555556, N
293184, 814.4, N
293504, 815.2888888888889, N
293806, 816.1277777777777, N
294101, 816.9472222222222, N
294404, 817.7888888888889, N
294729, 818.6916666666667, N
295041, 819.5583333333333, N
295348, 820.4111111111112, N
295654, 821.2611111111111, N
295966, 822.1277777777777, N
296259, 822.9416666666667, N
296546, 823.7388888888889, N
296847, 824.575, N
297159, 825.4416666666667, N
297489, 826.3583333333333, N
297806, 827.2388888888889, N
298116, 828.1, N
298395, 828.875, N
298688, 829.6888888888889, N
298986, 830.5166666666667, N
299300, 831.3888888888889, N
299626, 832.2944444444445, N
299939, 833.1638888888889, N
300119, 833.6638888888889, V
300530, 834.8055555555555, N
300839, 835.6638888888889, N
301150, 836.5277777777778, N
301462, 837.3944444444444, N
301772, 838.2555555555556, N
302086, 839.1277777777777, N
302390, 839.9722222222222, N
302682, 840.7833333333333, N
302976, 841.6, N
303291, 842.475, N
303600, 843.3333333333334, N
303924, 844.2333333333333, N
304256, 845.1555555555556, N
304575, 846.0416666666666, N
304860, 846.8333333333334, N
305161, 847.6694444444445, N
305483, 848.5638888888889, N
305816, 849.4888888888889, N
306163, 850.4527777777778, N
306495, 851.375, N
306819, 852.275, N
307115, 853.0972222222222, N
307448, 854.0222222222222, N
307815, 855.0416666666666, N
308172, 856.0333333333333, N
308495, 856.9305555555555, N
308809, 857.8027777777778, N
308982, 858.2833333333333, V
309417, 859.4916666666667, N
309750, 860.4166666666666, N
310110, 861.4166666666666, N
310447, 862.3527777777778, N
310781, 863.2805555555556, N
311144, 864.2888888888889, N
311459, 865.1638888888889, N
311761, 866.0027777777777, N
311958, 866.55, V
312453, 867.925, N
312783, 868.8416666666667, N
313097, 869.7138888888888, N
313417, 870.6027777777778, N
313726, 871.4611111111111, N
314033, 872.3138888888889, N
314374, 873.2611111111111, N
314733, 874.2583333333333, N
315078, 875.2166666666667, N
315377, 876.0472222222222, N
315690, 876.9166666666666, N
315997, 877.7694444444444, N
316326, 878.6833333333333, N
316678, 879.6611111111112, N
317012, 880.5888888888888, N
317317, 881.4361111111111, N
317608, 882.2444444444444, N
317939, 883.1638888888889, N
318258, 884.05, N
318582, 884.95, N
318898, 885.8277777777778, N
319112, 886.4222222222222, V
319521, 887.5583333333333, N
319823, 888.3972222222222, N
320151, 889.3083333333333, N
320462, 890.1722222222222, N
320768, 891.0222222222222, N
321094, 891.9277777777778, N
321436, 892.8777777777777, N
321760, 893.7777777777778, N
322045, 894.5694444444445, N
322361, 895.4472222222222, N
322680, 896.3333333333334, N
323007, 897.2416666666667, N
323345, 898.1805555555555, N
323671, 899.0861111111111, N
323965, 899.9027777777778, N
324244, 900.6777777777778, N
324565, 901.5694444444445, N
324889, 902.4694444444444, N
325219, 903.3861111111111, N
325542, 904.2833333333333, N
325857, 905.1583333333333, N
326148, 905.9666666666667, N
326446, 906.7944444444445, N
326785, 907.7361111111111, N
327111, 908.6416666666667, N
327442, 909.5611111111111, N
327792, 910.5333333333333, N
328145, 911.5138888888889, N
328458, 912.3833333333333, N
328763, 913.2305555555556, N
329120, 914.2222222222222, N
329464, 915.1777777777778, N
329826, 916.1833333333333, N
330205, 917.2361111111111, N
330398, 917.7722222222222, V
330837, 918.9916666666667, N
331165, 919.9027777777778, N
331552, 920.9777777777778, N
331919, 921.9972222222223, N
332291, 923.0305555555556, N
332634, 923.9833333333333, N
332940, 924.8333333333334, N
333258, 925.7166666666667, N
333692, 926.9222222222222, N
334046, 927.9055555555556, N
334412, 928.9222222222222, N
334754, 929.8722222222223, N
335068, 930.7444444444444, N
335392, 931.6444444444444, N
335752, 932.6444444444444, N
336136, 933.7111111111111, N
336468, 934.6333333333333, N
336792, 935.5333333333333, N
337108, 936.4111111111112, N
337429, 937.3027777777778, N
337753, 938.2027777777778, N
338108, 939.1888888888889, N
338448, 940.1333333333333, N
338793, 941.0916666666667, N
339124, 942.0111111111111, N
339418, 942.8277777777778, N
339723, 943.675, N
340035, 944.5416666666666, N
340393, 945.5361111111112, N
340743, 946.5083333333333, N
341065, 947.4027777777778, N
341370, 948.25, N
341529, 948.6916666666667, V
341977, 949.9361111111111, N
342302, 950.8388888888888, N
342690, 951.9166666666666, N
343008, 952.8, N
343318, 953.6611111111112, N
343606, 954.4611111111111, N
343905, 955.2916666666666, N
344221, 956.1694444444445, N
344546, 957.0722222222222, N
344884, 958.0111111111111, N
345212, 958.9222222222222, N
345538, 959.8277777777778, N
345844, 960.6777777777778, N
346131, 961.475, N
346431, 962.3083333333333, N
346749, 963.1916666666667, N
347001, 963.8916666666667, V
347405, 965.0138888888889, N
347708, 965.8555555555556, N
347999, 966.6638888888889, N
348287, 967.4638888888888, N
348601, 968.3361111111111, N
348927, 969.2416666666667, N
349282, 970.2277777777778, N
349585, 971.0694444444445, N
349888, 971.9111111111112, N
350178, 972.7166666666667, N
350475, 973.5416666666666, N
350801, 974.4472222222222, N
351130, 975.3611111111111, N
351487, 976.3527777777778, N
351802, 977.2277777777778, N
352136, 978.1555555555556, N
352449, 979.025, N
352765, 979.9027777777778, N
353082, 980.7833333333333, N
353418, 981.7166666666667, N
353763, 982.675, N
354083, 983.5638888888889, N
354403, 984.4527777777778, N
354717, 985.325, N
355029, 986.1916666666667, N
355364, 987.1222222222223, N
355800, 988.3333333333334, N
356168, 989.3555555555556, N
356462, 990.1722222222222, N
356761, 991.0027777777777, N
357073, 991.8694444444444, N
357393, 992.7583333333333, N
357720, 993.6666666666666, N
358097, 994.7138888888888, N
358423, 995.6194444444444, N
358713, 996.425, N
358918, 996.9944444444444, V
359349, 998.1916666666667, N
359686, 999.1277777777777, N
360009, 1000.025, N
360357, 1000.9916666666667, N
360660, 1001.8333333333334, N
360972, 1002.7, N
361302, 1003.6166666666667, N
361629, 1004.525, N
361951, 1005.4194444444445, N
362276, 1006.3222222222222, N
362647, 1007.3527777777778, N
362955, 1008.2083333333334, N
363127, 1008.6861111111111, V
363573, 1009.925, N
363916, 1010.8777777777777, N
364239, 1011.775, N
364587, 1012.7416666666667, N
364933, 1013.7027777777778, N
365225, 1014.5138888888889, N
365382, 1014.95, V
365846, 1016.2388888888889, N
366207, 1017.2416666666667, N
366552, 1018.2, N
366885, 1019.125, N
367217, 1020.0472222222222, N
367514, 1020.8722222222223, N
367838, 1021.7722222222222, N
368185, 1022.7361111111111, N
368516, 1023.6555555555556, N
368831, 1024.5305555555556, N
369169, 1025.4694444444444, N
369489, 1026.3583333333333, N
369803, 1027.2305555555556, N
370117, 1028.1027777777779, N
370220, 1028.388888888889, +
370323, 1028.675, V
370771, 1029.9194444444445, N
370983, 1030.5083333333334, V
371451, 1031.8083333333334, N
371634, 1032.3166666666666, V
371835, 1032.875, +
372037, 1033.4361111111111, N
372333, 1034.2583333333334, N
372732, 1035.3666666666666, N
373069, 1036.3027777777777, N
373397, 1037.213888888889, N
373723, 1038.1194444444445, N
374020, 1038.9444444444443, N
374358, 1039.8833333333334, N
374589, 1040.525, V
375101, 1041.9472222222223, N
375445, 1042.9027777777778, N
375763, 1043.786111111111, N
376076, 1044.6555555555556, N
376411, 1045.5861111111112, N
376802, 1046.6722222222222, N
377198, 1047.7722222222221, N
377545, 1048.736111111111, N
377868, 1049.6333333333334, N
378215, 1050.5972222222222, N
378550, 1051.5277777777778, N
378913, 1052.536111111111, N
379305, 1053.625, N
379595, 1054.4305555555557, V
379994, 1055.5388888888888, N
380326, 1056.4611111111112, N
380636, 1057.3222222222223, N
380959, 1058.2194444444444, N
381315, 1059.2083333333333, N
381650, 1060.138888888889, N
382002, 1061.1166666666666, N
382310, 1061.9722222222222, N
382629, 1062.8583333333333, N
382927, 1063.6861111111111, N
383276, 1064.6555555555556, N
383645, 1065.6805555555557, N
383991, 1066.6416666666667, N
384296, 1067.4888888888888, N
384596, 1068.3222222222223, N
384895, 1069.1527777777778, N
385112, 1069.7555555555555, V
385559, 1070.9972222222223, N
385776, 1071.6, V
386210, 1072.8055555555557, N
386519, 1073.6638888888888, N
386830, 1074.5277777777778, N
387140, 1075.388888888889, N
387451, 1076.2527777777777, N
387776, 1077.1555555555556, N
387976, 1077.7111111111112, V
388420, 1078.9444444444443, N
388731, 1079.8083333333334, N
389030, 1080.638888888889, N
389345, 1081.513888888889, N
389655, 1082.375, N
390002, 1083.338888888889, N
390361, 1084.3361111111112, N
390704, 1085.2888888888888, N
390997, 1086.1027777777779, N
391290, 1086.9166666666667, N
391591, 1087.7527777777777, N
391913, 1088.6472222222221, N
392266, 1089.6277777777777, N
392597, 1090.5472222222222, N
392902, 1091.3944444444444, N
393202, 1092.2277777777779, N
393528, 1093.1333333333334, N
393857, 1094.0472222222222, N
394190, 1094.9722222222222, N
394522, 1095.8944444444444, N
394868, 1096.8555555555556, N
395186, 1097.7388888888888, N
395491, 1098.5861111111112, N
395821, 1099.5027777777777, N
396158, 1100.4388888888889, N
396496, 1101.3777777777777, N
396850, 1102.361111111111, N
397218, 1103.3833333333334, N
397535, 1104.263888888889, N
397832, 1105.088888888889, N
398168, 1106.0222222222221, N
398492, 1106.9222222222222, N
398833, 1107.8694444444445, N
399196, 1108.8777777777777, N
399520, 1109.7777777777778, N
399790, 1110.5277777777778, N
400133, 1111.4805555555556, N
400557, 1112.6583333333333, N
400945, 1113.736111111111, N
401286, 1114.6833333333334, N
401615, 1115.5972222222222, N
401918, 1116.4388888888889, N
402220, 1117.2777777777778, N
402408, 1117.8, V
402966, 1119.35, N
403327, 1120.3527777777779, N
403660, 1121.2777777777778, N
403979, 1122.1638888888888, N
404289, 1123.025, N
404614, 1123.9277777777777, N
404971, 1124.9194444444445, N
405316, 1125.8777777777777, N
405641, 1126.7805555555556, N
405970, 1127.6944444444443, N
406276, 1128.5444444444445, N
406572, 1129.3666666666666, N
406883, 1130.2305555555556, N
407227, 1131.1861111111111, N
407590, 1132.1944444444443, N
407926, 1133.1277777777777, N
408224, 1133.9555555555555, N
408510, 1134.75, N
408816, 1135.6, N
409142, 1136.5055555555555, N
409348, 1137.0777777777778, V
409841, 1138.4472222222223, N
410161, 1139.3361111111112, N
410451, 1140.1416666666667, N
410757, 1140.9916666666666, N
411071, 1141.8638888888888, N
411429, 1142.8583333333333, N
411785, 1143.8472222222222, N
412010, 1144.4722222222222, V
412422, 1145.6166666666666, N
412618, 1146.161111111111, V
413030, 1147.3055555555557, N
413342, 1148.1722222222222, N
413671, 1149.0861111111112, N
414005, 1150.013888888889, N
414352, 1150.9777777777779, N
414677, 1151.8805555555555, N
414963, 1152.675, N
415132, 1153.1444444444444, V
415576, 1154.3777777777777, N
415938, 1155.3833333333334, N
416305, 1156.4027777777778, N
416639, 1157.3305555555555, N
416946, 1158.1833333333334, N
417238, 1158.9944444444445, N
417573, 1159.925, N
417940, 1160.9444444444443, N
418207, 1161.6861111111111, V
418683, 1163.0083333333334, N
419017, 1163.9361111111111, N
419316, 1164.7666666666667, N
419570, 1165.4722222222222, A
419978, 1166.6055555555556, N
420322, 1167.5611111111111, N
420713, 1168.6472222222221, N
421055, 1169.5972222222222, N
421383, 1170.5083333333334, N
421706, 1171.4055555555556, N
422031, 1172.3083333333334, N
422395, 1173.3194444444443, N
422805, 1174.4583333333333, N
423212, 1175.588888888889, N
423554, 1176.5388888888888, N
423873, 1177.425, N
424206, 1178.35, N
424565, 1179.3472222222222, N
424987, 1180.5194444444444, N
425404, 1181.6777777777777, N
425729, 1182.5805555555555, N
426041, 1183.4472222222223, N
426363, 1184.3416666666667, N
426711, 1185.3083333333334, N
427091, 1186.3638888888888, N
427496, 1187.4888888888888, N
427828, 1188.411111111111, N
428136, 1189.2666666666667, N
428478, 1190.2166666666667, N
428836, 1191.2111111111112, N
429185, 1192.1805555555557, N
429529, 1193.1361111111112, N
429865, 1194.0694444444443, N
430176, 1194.9333333333334, N
430498, 1195.8277777777778, N
430833, 1196.7583333333334, N
431168, 1197.6888888888889, N
431501, 1198.6138888888888, N
431859, 1199.6083333333333, N
432181, 1200.5027777777777, N
432487, 1201.3527777777779, N
432800, 1202.2222222222222, N
433130, 1203.138888888889, N
433457, 1204.0472222222222, N
433789, 1204.9694444444444, N
434123, 1205.8972222222221, N
434429, 1206.7472222222223, N
434729, 1207.5805555555555, N
435058, 1208.4944444444445, N
435293, 1209.1472222222221, V
435497, 1209.713888888889, ~
435745, 1210.4027777777778, N
436051, 1211.2527777777777, N
436370, 1212.138888888889, N
436652, 1212.9222222222222, N
436958, 1213.7722222222221, N
437284, 1214.6777777777777, N
437603, 1215.5638888888889, N
437916, 1216.4333333333334, N
438109, 1216.9694444444444, V
438552, 1218.2, N
438868, 1219.0777777777778, N
439186, 1219.9611111111112, N
439489, 1220.8027777777777, N
439810, 1221.6944444444443, N
440116, 1222.5444444444445, N
440321, 1223.1138888888888, V
440792, 1224.4222222222222, N
441105, 1225.2916666666667, N
441410, 1226.138888888889, N
441613, 1226.7027777777778, V
442103, 1228.0638888888889, N
442481, 1229.1138888888888, N
442817, 1230.0472222222222, N
443130, 1230.9166666666667, N
443441, 1231.7805555555556, N
443559, 1232.1083333333333, ~
443748, 1232.6333333333334, N
444070, 1233.5277777777778, N
444304, 1234.1777777777777, V
444750, 1235.4166666666667, N
445062, 1236.2833333333333, N
445384, 1237.1777777777777, N
445762, 1238.2277777777779, N
446136, 1239.2666666666667, N
446470, 1240.1944444444443, N
446793, 1241.0916666666667, N
447002, 1241.6722222222222, V
447381, 1242.725, N
447709, 1243.6361111111112, N
448059, 1244.6083333333333, N
448391, 1245.5305555555556, N
448711, 1246.4194444444445, N
448916, 1246.9888888888888, V
449308, 1248.0777777777778, N
449623, 1248.9527777777778, N
449980, 1249.9444444444443, N
450330, 1250.9166666666667, N
450552, 1251.5333333333333, ~
450650, 1251.8055555555557, N
450942, 1252.6166666666666, N
451248, 1253.4666666666667, N
451537, 1254.2694444444444, N
451847, 1255.1305555555555, N
451982, 1255.5055555555555, ~
452173, 1256.036111111111, N
452500, 1256.9444444444443, N
452704, 1257.5111111111112, V
453095, 1258.5972222222222, N
453430, 1259.5277777777778, N
453718, 1260.3277777777778, N
453987, 1261.075, N
454287, 1261.9083333333333, N
454510, 1262.5277777777778, V
454917, 1263.6583333333333, N
455135, 1264.263888888889, V
455513, 1265.3138888888889, N
455795, 1266.0972222222222, N
456055, 1266.8194444444443, N
456339, 1267.6083333333333, N
456688, 1268.5777777777778, N
457013, 1269.4805555555556, N
457342, 1270.3944444444444, N
457637, 1271.213888888889, N
457921, 1272.0027777777777, N
458183, 1272.7305555555556, N
458476, 1273.5444444444445, N
458817, 1274.4916666666666, N
459091, 1275.2527777777777, V
459467, 1276.2972222222222, N
459751, 1277.0861111111112, N
460034, 1277.8722222222223, N
460318, 1278.661111111111, N
460605, 1279.4583333333333, N
460901, 1280.2805555555556, N
461226, 1281.1833333333334, N
461546, 1282.0722222222223, N
461836, 1282.8777777777777, N
462126, 1283.6833333333334, N
462409, 1284.4694444444444, N
462595, 1284.986111111111, V
462987, 1286.075, N
463310, 1286.9722222222222, N
463677, 1287.9916666666666, N
464040, 1289.0, N
464360, 1289.888888888889, N
464458, 1290.161111111111, +
464556, 1290.4333333333334, V
464918, 1291.4388888888889, N
465156, 1292.1, V
465643, 1293.4527777777778, N
465926, 1294.2388888888888, V
466148, 1294.8555555555556, +
466370, 1295.4722222222222, N
466665, 1296.2916666666667, N
466936, 1297.0444444444445, N
467232, 1297.8666666666666, N
467632, 1298.9777777777779, N
467954, 1299.8722222222223, V
468125, 1300.3472222222222, "
468558, 1301.55, N
468869, 1302.4138888888888, N
469165, 1303.236111111111, N
469517, 1304.213888888889, N
469936, 1305.3777777777777, N
470324, 1306.4555555555555, N
470473, 1306.8694444444445, +
470622, 1307.2833333333333, V
471026, 1308.4055555555556, N
471218, 1308.9388888888889, V
471622, 1310.0611111111111, N
471951, 1310.975, V
472120, 1311.4444444444443, "
472224, 1311.7333333333333, +
472497, 1312.4916666666666, N
472898, 1313.6055555555556, N
473194, 1314.4277777777777, N
473486, 1315.2388888888888, N
473784, 1316.0666666666666, N
474119, 1316.9972222222223, N
474423, 1317.8416666666667, V
474628, 1318.411111111111, "
474916, 1319.2111111111112, N
475246, 1320.1277777777777, N
475517, 1320.8805555555555, N
475704, 1321.4, V
476142, 1322.6166666666666, N
476484, 1323.5666666666666, N
476812, 1324.4777777777779, N
477124, 1325.3444444444444, N
477432, 1326.2, N
477706, 1326.9611111111112, N
477812, 1327.2555555555555, +
477919, 1327.5527777777777, V
478326, 1328.6833333333334, N
478544, 1329.2888888888888, V
478967, 1330.463888888889, N
479180, 1331.0555555555557, V
479391, 1331.6416666666667, +
479602, 1332.2277777777779, N
479895, 1333.0416666666667, N
480202, 1333.8944444444444, N
480496, 1334.7111111111112, N
480793, 1335.536111111111, N
481091, 1336.3638888888888, N
481400, 1337.2222222222222, N
481729, 1338.1361111111112, N
482019, 1338.9416666666666, N
482242, 1339.5611111111111, V
482615, 1340.5972222222222, N
482939, 1341.4972222222223, N
483275, 1342.4305555555557, N
483600, 1343.3333333333333, N
483890, 1344.138888888889, N
484173, 1344.925, N
484460, 1345.7222222222222, N
484759, 1346.5527777777777, N
485066, 1347.4055555555556, N
485375, 1348.263888888889, N
485691, 1349.1416666666667, N
485873, 1349.6472222222221, V
486267, 1350.7416666666666, N
486583, 1351.6194444444445, N
486906, 1352.5166666666667, N
487211, 1353.3638888888888, N
487520, 1354.2222222222222, N
487849, 1355.1361111111112, N
488141, 1355.9472222222223, N
488448, 1356.8, N
488781, 1357.725, N
489125, 1358.6805555555557, N
489440, 1359.5555555555557, N
489758, 1360.4388888888889, N
490136, 1361.4888888888888, N
490463, 1362.3972222222221, N
490796, 1363.3222222222223, N
490951, 1363.7527777777777, ~
491114, 1364.2055555555555, N
491445, 1365.125, N
491747, 1365.963888888889, N
492077, 1366.8805555555555, N
492438, 1367.8833333333334, N
492746, 1368.7388888888888, N
492993, 1369.425, V
493430, 1370.638888888889, N
493845, 1371.7916666666667, N
494229, 1372.8583333333333, N
494573, 1373.8138888888889, N
494880, 1374.6666666666667, N
495204, 1375.5666666666666, N
495569, 1376.5805555555555, N
495927, 1377.575, N
496273, 1378.536111111111, N
496383, 1378.8416666666667, ~
496604, 1379.4555555555555, N
496905, 1380.2916666666667, N
497194, 1381.0944444444444, N
497538, 1382.05, N
497920, 1383.111111111111, N
498272, 1384.088888888889, N
498601, 1385.0027777777777, N
498892, 1385.8111111111111, N
499174, 1386.5944444444444, N
499475, 1387.4305555555557, N
499811, 1388.3638888888888, N
500159, 1389.3305555555555, N
500497, 1390.2694444444444, N
500793, 1391.0916666666667, N
500975, 1391.5972222222222, V
501402, 1392.7833333333333, N
501711, 1393.6416666666667, N
502037, 1394.5472222222222, N
502377, 1395.4916666666666, N
502699, 1396.3861111111112, N
503008, 1397.2444444444445, N
503188, 1397.7444444444445, V
503607, 1398.9083333333333, N
503908, 1399.7444444444445, N
504112, 1400.3111111111111, V
504546, 1401.5166666666667, N
504898, 1402.4944444444445, N
505216, 1403.3777777777777, N
505507, 1404.1861111111111, N
505596, 1404.4333333333334, +
505686, 1404.6833333333334, V
506047, 1405.6861111111111, N
506260, 1406.2777777777778, V
506746, 1407.6277777777777, N
506983, 1408.286111111111, V
507386, 1409.4055555555556, N
507572, 1409.9222222222222, V
507952, 1410.9777777777779, N
508158, 1411.55, V
508601, 1412.7805555555556, N
508845, 1413.4583333333333, V
509267, 1414.6305555555555, N
509470, 1415.1944444444443, V
509854, 1416.2611111111112, N
510056, 1416.8222222222223, V
510468, 1417.9666666666667, N
510689, 1418.5805555555555, V
511171, 1419.9194444444445, N
511390, 1420.5277777777778, V
511817, 1421.713888888889, N
512023, 1422.286111111111, V
512428, 1423.411111111111, N
512627, 1423.963888888889, V
513093, 1425.2583333333334, N
513353, 1425.9805555555556, V
513805, 1427.236111111111, N
514029, 1427.8583333333333, V
514426, 1428.9611111111112, N
514637, 1429.5472222222222, V
515050, 1430.6944444444443, N
515318, 1431.4388888888889, V
515897, 1433.0472222222222, N
516149, 1433.7472222222223, V
516541, 1434.8361111111112, N
516761, 1435.4472222222223, V
517217, 1436.713888888889, N
517473, 1437.425, V
518009, 1438.9138888888888, N
518265, 1439.625, V
518666, 1440.7388888888888, N
518875, 1441.3194444444443, V
519327, 1442.575, N
519580, 1443.2777777777778, V
520074, 1444.65, N
520320, 1445.3333333333333, V
520721, 1446.4472222222223, N
520918, 1446.9944444444445, V
521356, 1448.2111111111112, N
521595, 1448.875, V
522050, 1450.138888888889, N
522281, 1450.7805555555556, V
522708, 1451.9666666666667, N
522916, 1452.5444444444445, V
523329, 1453.6916666666666, N
523564, 1454.3444444444444, V
523979, 1455.4972222222223, N
524190, 1456.0833333333333, V
524605, 1457.236111111111, N
524826, 1457.85, V
525221, 1458.9472222222223, N
525417, 1459.4916666666666, V
525849, 1460.6916666666666, N
526058, 1461.2722222222221, V
526272, 1461.8666666666666, +
526487, 1462.463888888889, N
526818, 1463.3833333333334, N
527125, 1464.236111111111, N
527393, 1464.9805555555556, N
527677, 1465.7694444444444, N
527902, 1466.3944444444444, V
528298, 1467.4944444444445, N
528644, 1468.4555555555555, N
528969, 1469.3583333333333, N
529269, 1470.1916666666666, N
529541, 1470.9472222222223, N
529856, 1471.8222222222223, N
530198, 1472.7722222222221, N
530451, 1473.475, V
530597, 1473.8805555555555, ~
530829, 1474.525, N
531138, 1475.3833333333334, N
531428, 1476.1888888888889, N
531714, 1476.9833333333333, N
532022, 1477.838888888889, N
532252, 1478.4777777777779, V
532643, 1479.5638888888889, N
532977, 1480.4916666666666, N
533301, 1481.3916666666667, N
533494, 1481.9277777777777, V
533726, 1482.5722222222223, ~
533873, 1482.9805555555556, N
534059, 1483.4972222222223, V
534500, 1484.7222222222222, N
534829, 1485.6361111111112, N
535033, 1486.2027777777778, V
535485, 1487.4583333333333, N
535792, 1488.3111111111111, N
536057, 1489.0472222222222, A
536395, 1489.986111111111, N
536783, 1491.0638888888889, N
537127, 1492.0194444444444, N
537450, 1492.9166666666667, N
537756, 1493.7666666666667, N
538056, 1494.6, N
538269, 1495.1916666666666, V
538700, 1496.388888888889, N
539092, 1497.4777777777779, N
539432, 1498.4222222222222, N
539676, 1499.1, ~
539725, 1499.236111111111, N
540093, 1500.2583333333334, N
540406, 1501.1277777777777, N
540739, 1502.0527777777777, N
541078, 1502.9944444444445, N
541426, 1503.9611111111112, N
541735, 1504.8194444444443, N
541967, 1505.463888888889, V
542358, 1506.55, N
542562, 1507.1166666666666, V
542711, 1507.5305555555556, ~
542955, 1508.2083333333333, N
543277, 1509.1027777777779, N
543639, 1510.1083333333333, N
543977, 1511.0472222222222, N
544278, 1511.8833333333334, N
544546, 1512.6277777777777, N
544864, 1513.5111111111112, N
545166, 1514.35, N
545497, 1515.2694444444444, N
545835, 1516.2083333333333, N
546145, 1517.0694444444443, N
546435, 1517.875, N
546672, 1518.5333333333333, ~
546730, 1518.6944444444443, N
547036, 1519.5444444444445, N
547341, 1520.3916666666667, N
547656, 1521.2666666666667, N
547975, 1522.1527777777778, N
548285, 1523.013888888889, N
548568, 1523.8, N
548857, 1524.6027777777779, N
549170, 1525.4722222222222, N
549278, 1525.7722222222221, ~
549467, 1526.2972222222222, N
549754, 1527.0944444444444, N
550088, 1528.0222222222221, N
550413, 1528.925, N
550719, 1529.775, N
550907, 1530.2972222222222, V
551294, 1531.3722222222223, N
551590, 1532.1944444444443, N
551767, 1532.6861111111111, V
552221, 1533.9472222222223, N
552554, 1534.8722222222223, N
552845, 1535.6805555555557, N
553126, 1536.4611111111112, N
553420, 1537.2777777777778, N
553688, 1538.0222222222221, N
553876, 1538.5444444444445, V
554361, 1539.8916666666667, N
554679, 1540.775, N
554979, 1541.6083333333333, N
555262, 1542.3944444444444, N
555563, 1543.2305555555556, N
555872, 1544.088888888889, N
556200, 1545.0, N
556513, 1545.8694444444445, N
556846, 1546.7944444444445, N
557043, 1547.3416666666667, V
557465, 1548.513888888889, N
557732, 1549.2555555555555, N
558082, 1550.2277777777779, N
558424, 1551.1777777777777, N
558761, 1552.1138888888888, N
558965, 1552.6805555555557, V
559405, 1553.9027777777778, N
559593, 1554.425, V
559989, 1555.525, N
560310, 1556.4166666666667, N
560669, 1557.4138888888888, N
561042, 1558.45, N
561362, 1559.338888888889, N
561664, 1560.1777777777777, N
561961, 1561.0027777777777, N
562281, 1561.8916666666667, N
562621, 1562.8361111111112, N
562990, 1563.861111111111, N
563351, 1564.8638888888888, N
563647, 1565.6861111111111, N
563854, 1566.2611111111112, V
564241, 1567.3361111111112, N
564588, 1568.3, N
564928, 1569.2444444444445, N
565253, 1570.1472222222221, N
565504, 1570.8444444444444, V
565892, 1571.9222222222222, N
566193, 1572.7583333333334, N
566494, 1573.5944444444444, N
566829, 1574.525, N
567049, 1575.1361111111112, V
567475, 1576.3194444444443, N
567814, 1577.2611111111112, N
568112, 1578.088888888889, N
568390, 1578.861111111111, N
568678, 1579.661111111111, N
569008, 1580.5777777777778, N
569333, 1581.4805555555556, N
569654, 1582.3722222222223, N
569974, 1583.2611111111112, N
570260, 1584.0555555555557, N
570542, 1584.838888888889, N
570851, 1585.6972222222223, N
571190, 1586.638888888889, N
571516, 1587.5444444444445, N
571823, 1588.3972222222221, N
572132, 1589.2555555555555, N
572405, 1590.013888888889, N
572713, 1590.8694444444445, N
573018, 1591.7166666666667, N
573360, 1592.6666666666667, N
573669, 1593.525, N
573989, 1594.4138888888888, N
574323, 1595.3416666666667, N
574628, 1596.1888888888889, N
574903, 1596.9527777777778, N
575191, 1597.7527777777777, N
575509, 1598.6361111111112, N
575712, 1599.2, V
576151, 1600.4194444444445, N
576480, 1601.3333333333333, N
576773, 1602.1472222222221, N
577056, 1602.9333333333334, N
577359, 1603.775, N
577637, 1604.5472222222222, N
577749, 1604.8583333333333, +
577861, 1605.1694444444445, V
578357, 1606.5472222222222, N
578561, 1607.1138888888888, V
578973, 1608.2583333333334, N
579169, 1608.8027777777777, V
579377, 1609.3805555555555, +
579585, 1609.9583333333333, N
579914, 1610.8722222222223, N
580267, 1611.8527777777779, N
580588, 1612.7444444444445, N
580919, 1613.6638888888888, N
581019, 1613.9416666666666, +
581119, 1614.2194444444444, V
581506, 1615.2944444444445, N
581703, 1615.8416666666667, V
582141, 1617.0583333333334, N
582359, 1617.6638888888888, V
582802, 1618.8944444444444, N
583030, 1619.5277777777778, V
583426, 1620.6277777777777, N
583614, 1621.15, V
584050, 1622.361111111111, N
584286, 1623.0166666666667, V
584527, 1623.6861111111111, +
584768, 1624.3555555555556, N
585091, 1625.2527777777777, N
585391, 1626.0861111111112, N
585674, 1626.8722222222223, N
585969, 1627.6916666666666, N
586183, 1628.286111111111, V
586622, 1629.5055555555555, N
586855, 1630.1527777777778, V
587251, 1631.2527777777777, N
587553, 1632.0916666666667, N
587861, 1632.9472222222223, N
588163, 1633.786111111111, N
588344, 1634.2888888888888, V
588769, 1635.4694444444444, N
589093, 1636.3694444444445, N
589401, 1637.225, N
589703, 1638.0638888888889, N
589992, 1638.8666666666666, N
590276, 1639.6555555555556, N
590567, 1640.463888888889, N
590838, 1641.2166666666667, N
591229, 1642.3027777777777, N
591543, 1643.175, N
591829, 1643.9694444444444, N
592009, 1644.4694444444444, V
592394, 1645.5388888888888, N
592590, 1646.0833333333333, V
593012, 1647.2555555555555, N
593333, 1648.1472222222221, N
593640, 1649.0, N
593922, 1649.7833333333333, N
594215, 1650.5972222222222, N
594513, 1651.425, N
594703, 1651.9527777777778, V
595116, 1653.1, N
595434, 1653.9833333333333, N
595744, 1654.8444444444444, N
596027, 1655.6305555555555, N
596332, 1656.4777777777779, N
596618, 1657.2722222222221, N
596915, 1658.0972222222222, N
597215, 1658.9305555555557, N
597414, 1659.4833333333333, V
597879, 1660.775, N
598077, 1661.325, V
598454, 1662.3722222222223, N
598743, 1663.175, N
599036, 1663.9888888888888, N
599348, 1664.8555555555556, N
599574, 1665.4833333333333, V
600012, 1666.7, N
600198, 1667.2166666666667, V
600601, 1668.3361111111112, N
600906, 1669.1833333333334, N
601233, 1670.0916666666667, N
601563, 1671.0083333333334, N
601795, 1671.6527777777778, A
602185, 1672.736111111111, N
602407, 1673.3527777777779, V
602812, 1674.4777777777779, N
603114, 1675.3166666666666, N
603423, 1676.175, N
603744, 1677.0666666666666, N
603848, 1677.3555555555556, +
603952, 1677.6444444444444, V
604399, 1678.8861111111112, N
604624, 1679.5111111111112, V
605029, 1680.6361111111112, N
605215, 1681.1527777777778, V
605428, 1681.7444444444445, +
605641, 1682.3361111111112, N
605973, 1683.2583333333334, N
606293, 1684.1472222222221, N
606651, 1685.1416666666667, N
606959, 1685.9972222222223, N
607236, 1686.7666666666667, N
607528, 1687.5777777777778, N
607855, 1688.486111111111, N
608184, 1689.4, N
608464, 1690.1777777777777, N
608824, 1691.1777777777777, N
609128, 1692.0222222222221, N
609418, 1692.8277777777778, N
609720, 1693.6666666666667, N
610057, 1694.6027777777779, N
610162, 1694.8944444444444, +
610268, 1695.1888888888889, V
610682, 1696.338888888889, N
610887, 1696.9083333333333, V
611320, 1698.111111111111, N
611513, 1698.6472222222221, V
611927, 1699.7972222222222, N
612128, 1700.3555555555556, V
612560, 1701.5555555555557, N
612761, 1702.1138888888888, V
613192, 1703.3111111111111, N
613414, 1703.9277777777777, V
613602, 1704.45, +
613790, 1704.9722222222222, N
614086, 1705.7944444444445, N
614409, 1706.6916666666666, N
614753, 1707.6472222222221, N
615072, 1708.5333333333333, N
615374, 1709.3722222222223, N
615556, 1709.8777777777777, V
615952, 1710.9777777777779, N
616264, 1711.8444444444444, N
616588, 1712.7444444444445, N
616916, 1713.6555555555556, N
617229, 1714.525, N
617533, 1715.3694444444445, N
617718, 1715.8833333333334, V
618137, 1717.0472222222222, N
618441, 1717.8916666666667, N
618746, 1718.7388888888888, N
619053, 1719.5916666666667, N
619364, 1720.4555555555555, N
619672, 1721.3111111111111, N
619990, 1722.1944444444443, N
620265, 1722.9583333333333, N
620558, 1723.7722222222221, N
620744, 1724.2888888888888, V
621196, 1725.5444444444445, N
621517, 1726.4361111111111, N
621835, 1727.3194444444443, N
622140, 1728.1666666666667, N
622424, 1728.9555555555555, N
622610, 1729.4722222222222, V
623048, 1730.6888888888889, N
623401, 1731.6694444444445, N
623726, 1732.5722222222223, N
624040, 1733.4444444444443, N
624358, 1734.3277777777778, N
624662, 1735.1722222222222, N
624868, 1735.7444444444445, V
625318, 1736.9944444444445, N
625641, 1737.8916666666667, N
625961, 1738.7805555555556, N
626256, 1739.6, N
626584, 1740.5111111111112, N
626883, 1741.3416666666667, N
627213, 1742.2583333333334, N
627557, 1743.213888888889, N
627904, 1744.1777777777777, N
628234, 1745.0944444444444, N
628544, 1745.9555555555555, N
628840, 1746.7777777777778, N
629135, 1747.5972222222222, N
629439, 1748.4416666666666, N
629766, 1749.35, N
630105, 1750.2916666666667, N
630415, 1751.1527777777778, N
630707, 1751.963888888889, N
631007, 1752.7972222222222, N
631322, 1753.6722222222222, N
631516, 1754.2111111111112, V
631980, 1755.5, N
632211, 1756.1416666666667, V
632607, 1757.2416666666666, N
632862, 1757.95, N
633188, 1758.8555555555556, N
633493, 1759.7027777777778, N
633704, 1760.2888888888888, V
634110, 1761.4166666666667, N
634421, 1762.2805555555556, N
634754, 1763.2055555555555, N
635045, 1764.013888888889, N
635340, 1764.8333333333333, N
635619, 1765.6083333333333, N
635929, 1766.4694444444444, N
636241, 1767.3361111111112, N
636558, 1768.2166666666667, N
636876, 1769.1, N
637153, 1769.8694444444445, N
637446, 1770.6833333333334, N
637638, 1771.2166666666667, V
638067, 1772.4083333333333, N
638399, 1773.3305555555555, N
638718, 1774.2166666666667, N
639010, 1775.0277777777778, N
639221, 1775.6138888888888, V
639584, 1776.6222222222223, N
639764, 1777.1222222222223, V
640175, 1778.263888888889, N
640475, 1779.0972222222222, N
640795, 1779.986111111111, N
641109, 1780.8583333333333, N
641412, 1781.7, N
641509, 1781.9694444444444, +
641606, 1782.2388888888888, V
641981, 1783.2805555555556, N
642171, 1783.8083333333334, V
642586, 1784.9611111111112, N
642801, 1785.5583333333334, V
643005, 1786.125, +
643210, 1786.6944444444443, N
643516, 1787.5444444444445, N
643801, 1788.3361111111112, N
644094, 1789.15, N
644398, 1789.9944444444445, N
644738, 1790.9388888888889, N
644941, 1791.5027777777777, V
645382, 1792.7277777777779, N
645682, 1793.5611111111111, N
645972, 1794.3666666666666, N
646270, 1795.1944444444443, N
646578, 1796.05, N
646910, 1796.9722222222222, N
647099, 1797.4972222222223, V
647513, 1798.6472222222221, N
647846, 1799.5722222222223, N
648052, 1800.1444444444444, V
648464, 1801.2888888888888, N
648777, 1802.1583333333333, N
649108, 1803.0777777777778, N
649332, 1803.7, V
649761, 1804.8916666666667, N
