30, 0.08333333333333333, +
75, 0.20833333333333334, N
349, 0.9694444444444444, N
616, 1.711111111111111, N
880, 2.4444444444444446, N
1138, 3.161111111111111, N
1400, 3.888888888888889, N
1545, 4.291666666666667, +
1666, 4.627777777777778, N
1926, 5.35, N
2199, 6.108333333333333, N
2467, 6.852777777777778, N
2726, 7.572222222222222, N
2985, 8.291666666666666, N
3243, 9.008333333333333, N
3502, 9.727777777777778, N
3763, 10.452777777777778, N
4026, 11.183333333333334, N
4300, 11.944444444444445, N
4570, 12.694444444444445, N
4841, 13.447222222222223, N
5115, 14.208333333333334, N
5387, 14.963888888888889, N
5566, 15.46111111111111, +
5662, 15.727777777777778, N
5926, 16.461111111111112, N
6193, 17.20277777777778, N
6458, 17.93888888888889, N
6732, 18.7, N
7005, 19.458333333333332, N
7262, 20.17222222222222, N
7524, 20.9, N
7776, 21.6, N
8024, 22.288888888888888, N
8273, 22.980555555555554, N
8523, 23.675, N
8782, 24.394444444444446, N
9052, 25.144444444444446, N
9329, 25.913888888888888, N
9490, 26.36111111111111, +
9598, 26.66111111111111, N
9872, 27.42222222222222, N
10156, 28.211111111111112, N
10437, 28.991666666666667, N
10717, 29.769444444444446, N
10990, 30.52777777777778, N
11148, 30.966666666666665, +
11259, 31.275, N
11532, 32.03333333333333, N
11805, 32.791666666666664, N
12079, 33.55277777777778, N
12358, 34.327777777777776, N
12643, 35.11944444444445, N
12923, 35.897222222222226, N
13117, 36.43611111111111, +
13208, 36.68888888888889, N
13498, 37.49444444444445, N
13781, 38.28055555555556, N
14056, 39.044444444444444, N
14332, 39.81111111111111, N
14610, 40.583333333333336, N
14876, 41.32222222222222, N
15153, 42.09166666666667, N
15336, 42.6, +
15434, 42.87222222222222, N
15708, 43.63333333333333, N
15983, 44.397222222222226, N
16269, 45.19166666666667, N
16570, 46.02777777777778, N
16867, 46.852777777777774, N
17163, 47.675, N
17451, 48.475, N
17728, 49.24444444444445, N
18007, 50.019444444444446, N
18278, 50.772222222222226, N
18560, 51.55555555555556, N
18850, 52.361111111111114, N
19134, 53.15, N
19413, 53.925, N
19690, 54.69444444444444, N
19979, 55.49722222222222, N
20270, 56.30555555555556, N
20560, 57.111111111111114, N
20834, 57.87222222222222, N
21111, 58.641666666666666, N
21395, 59.43055555555556, N
21689, 60.24722222222222, N
21997, 61.102777777777774, N
22301, 61.94722222222222, N
22595, 62.763888888888886, N
22895, 63.59722222222222, N
23200, 64.44444444444444, N
23493, 65.25833333333334, N
23778, 66.05, N
24058, 66.82777777777778, N
24348, 67.63333333333334, N
24649, 68.46944444444445, N
24946, 69.29444444444445, N
25244, 70.12222222222222, N
25543, 70.95277777777778, N
25826, 71.7388888888889, N
26088, 72.46666666666667, N
26353, 73.20277777777778, N
26622, 73.95, N
26884, 74.67777777777778, N
27159, 75.44166666666666, N
27447, 76.24166666666666, N
27740, 77.05555555555556, N
28033, 77.86944444444444, N
28330, 78.69444444444444, N
28632, 79.53333333333333, N
28922, 80.33888888888889, N
29211, 81.14166666666667, N
29495, 81.93055555555556, N
29784, 82.73333333333333, N
30082, 83.56111111111112, N
30382, 84.39444444444445, N
30670, 85.19444444444444, N
30951, 85.975, N
31221, 86.725, N
31496, 87.4888888888889, N
31789, 88.30277777777778, N
32080, 89.11111111111111, N
32376, 89.93333333333334, N
32671, 90.75277777777778, N
32980, 91.61111111111111, N
33289, 92.46944444444445, N
33583, 93.28611111111111, N
33869, 94.08055555555555, N
34155, 94.875, N
34439, 95.66388888888889, N
34719, 96.44166666666666, N
35009, 97.24722222222222, N
35309, 98.08055555555555, N
35620, 98.94444444444444, N
35947, 99.85277777777777, N
36260, 100.72222222222223, N
36575, 101.59722222222223, N
36890, 102.47222222222223, N
37184, 103.28888888888889, N
37476, 104.1, N
37763, 104.89722222222223, N
38056, 105.71111111111111, N
38355, 106.54166666666667, N
38666, 107.40555555555555, N
38977, 108.26944444444445, N
39267, 109.075, N
39552, 109.86666666666666, N
39836, 110.65555555555555, N
40124, 111.45555555555555, N
40401, 112.225, N
40682, 113.00555555555556, N
40966, 113.79444444444445, N
41242, 114.56111111111112, N
41436, 115.1, +
41532, 115.36666666666666, N
41829, 116.19166666666666, N
42138, 117.05, N
42307, 117.51944444444445, +
42438, 117.88333333333334, N
42745, 118.73611111111111, N
43063, 119.61944444444444, N
43373, 120.48055555555555, N
43668, 121.3, N
43944, 122.06666666666666, N
44218, 122.82777777777778, N
44485, 123.56944444444444, N
44755, 124.31944444444444, N
45030, 125.08333333333333, N
45296, 125.82222222222222, N
45565, 126.56944444444444, N
45837, 127.325, N
46112, 128.0888888888889, N
46390, 128.86111111111111, N
46662, 129.61666666666667, N
46948, 130.4111111111111, N
47273, 131.3138888888889, N
47475, 131.875, +
47599, 132.21944444444443, N
47933, 133.1472222222222, N
48248, 134.0222222222222, N
48547, 134.8527777777778, N
48841, 135.66944444444445, N
49137, 136.49166666666667, N
49427, 137.29722222222222, N
49711, 138.0861111111111, N
49994, 138.87222222222223, N
50271, 139.64166666666668, N
50552, 140.42222222222222, N
50838, 141.21666666666667, N
51128, 142.0222222222222, N
51422, 142.8388888888889, N
51717, 143.65833333333333, N
52005, 144.45833333333334, N
52295, 145.26388888888889, N
52595, 146.09722222222223, N
52891, 146.91944444444445, N
53177, 147.7138888888889, N
53350, 148.19444444444446, +
53457, 148.49166666666667, N
53629, 148.96944444444443, +
53732, 149.25555555555556, N
53920, 149.77777777777777, +
54007, 150.01944444444445, N
54275, 150.76388888888889, N
54546, 151.51666666666668, N
54820, 152.27777777777777, N
55093, 153.0361111111111, N
55275, 153.54166666666666, +
55377, 153.825, N
55671, 154.64166666666668, N
55962, 155.45, N
56236, 156.2111111111111, N
56508, 156.96666666666667, N
56772, 157.7, N
57036, 158.43333333333334, N
57298, 159.1611111111111, N
57567, 159.90833333333333, N
57731, 160.36388888888888, +
57839, 160.6638888888889, N
58035, 161.20833333333334, +
58115, 161.43055555555554, N
58391, 162.19722222222222, N
58661, 162.94722222222222, N
58943, 163.73055555555555, N
59237, 164.54722222222222, N
59431, 165.0861111111111, +
59520, 165.33333333333334, N
59791, 166.0861111111111, N
60045, 166.79166666666666, N
60294, 167.48333333333332, N
60536, 168.15555555555557, N
60775, 168.81944444444446, N
61015, 169.48611111111111, N
61262, 170.17222222222222, N
61504, 170.84444444444443, N
61752, 171.53333333333333, N
61998, 172.21666666666667, N
62255, 172.93055555555554, N
62514, 173.65, N
62669, 174.08055555555555, +
62766, 174.35, N
63019, 175.05277777777778, N
63265, 175.73611111111111, N
63509, 176.4138888888889, N
63759, 177.10833333333332, N
64001, 177.78055555555557, N
64248, 178.46666666666667, N
64495, 179.15277777777777, N
64636, 179.54444444444445, +
64732, 179.8111111111111, N
64896, 180.26666666666668, +
64970, 180.47222222222223, N
65204, 181.12222222222223, N
65344, 181.51111111111112, +
65435, 181.76388888888889, N
65671, 182.41944444444445, N
65900, 183.05555555555554, N
66127, 183.6861111111111, N
66345, 184.29166666666666, N
66564, 184.9, N
66781, 185.50277777777777, N
67014, 186.15, N
67255, 186.81944444444446, N
67515, 187.54166666666666, N
67706, 188.07222222222222, +
67796, 188.32222222222222, N
67979, 188.83055555555555, +
68075, 189.09722222222223, N
68349, 189.85833333333332, N
68606, 190.57222222222222, N
68860, 191.27777777777777, N
69105, 191.95833333333334, N
69336, 192.6, N
69567, 193.24166666666667, N
69791, 193.86388888888888, N
70018, 194.49444444444444, N
70251, 195.14166666666668, N
70489, 195.80277777777778, N
70734, 196.48333333333332, N
70997, 197.2138888888889, N
71258, 197.9388888888889, N
71520, 198.66666666666666, N
71780, 199.38888888888889, N
72054, 200.15, N
72323, 200.8972222222222, N
72579, 201.60833333333332, N
72840, 202.33333333333334, N
73091, 203.03055555555557, N
73342, 203.7277777777778, N
73593, 204.425, N
73845, 205.125, N
74107, 205.8527777777778, N
74379, 206.60833333333332, N
74642, 207.3388888888889, N
74902, 208.0611111111111, N
75163, 208.7861111111111, N
75428, 209.5222222222222, N
75692, 210.25555555555556, N
75952, 210.9777777777778, N
76215, 211.70833333333334, N
76480, 212.44444444444446, N
76655, 212.93055555555554, +
76739, 213.1638888888889, N
76989, 213.85833333333332, N
77241, 214.55833333333334, N
77488, 215.24444444444444, N
77729, 215.9138888888889, N
77965, 216.56944444444446, N
78197, 217.2138888888889, N
78428, 217.85555555555555, N
78663, 218.50833333333333, N
78905, 219.18055555555554, N
79147, 219.8527777777778, N
79400, 220.55555555555554, N
79647, 221.24166666666667, N
79900, 221.94444444444446, N
80158, 222.6611111111111, N
80420, 223.38888888888889, N
80674, 224.09444444444443, N
80932, 224.8111111111111, N
81179, 225.49722222222223, N
81429, 226.19166666666666, N
81675, 226.875, N
81917, 227.54722222222222, N
82161, 228.225, N
82312, 228.64444444444445, +
82395, 228.875, N
82626, 229.51666666666668, N
82853, 230.1472222222222, N
83088, 230.8, N
83338, 231.49444444444444, N
83587, 232.1861111111111, N
83779, 232.71944444444443, +
83848, 232.9111111111111, N
84108, 233.63333333333333, N
84365, 234.34722222222223, N
84612, 235.03333333333333, N
84851, 235.69722222222222, N
85100, 236.38888888888889, N
85247, 236.79722222222222, +
85346, 237.07222222222222, N
85507, 237.51944444444445, +
85587, 237.74166666666667, N
85831, 238.41944444444445, N
86073, 239.09166666666667, N
86335, 239.81944444444446, N
86604, 240.56666666666666, N
86854, 241.26111111111112, N
87025, 241.73611111111111, +
87102, 241.95, N
87351, 242.64166666666668, N
87600, 243.33333333333334, N
87847, 244.01944444444445, N
88017, 244.49166666666667, +
88091, 244.69722222222222, N
88338, 245.38333333333333, N
88589, 246.08055555555555, N
88834, 246.76111111111112, N
89081, 247.44722222222222, N
89327, 248.13055555555556, N
89588, 248.85555555555555, N
89862, 249.61666666666667, N
90122, 250.3388888888889, N
90387, 251.075, N
90665, 251.84722222222223, N
90920, 252.55555555555554, N
91173, 253.25833333333333, N
91424, 253.95555555555555, N
91684, 254.67777777777778, N
91852, 255.14444444444445, +
91956, 255.43333333333334, N
92227, 256.18611111111113, N
92486, 256.90555555555557, N
92740, 257.6111111111111, N
92998, 258.3277777777778, N
93255, 259.0416666666667, N
93523, 259.7861111111111, N
93793, 260.5361111111111, N
94055, 261.2638888888889, N
94308, 261.96666666666664, N
94558, 262.6611111111111, N
94824, 263.4, N
95122, 264.22777777777776, N
95428, 265.0777777777778, N
95740, 265.94444444444446, N
96047, 266.7972222222222, N
96237, 267.325, +
96342, 267.6166666666667, N
96611, 268.3638888888889, N
96834, 268.98333333333335, +
96876, 269.1, N
97134, 269.81666666666666, N
97381, 270.5027777777778, N
97566, 271.01666666666665, +
97629, 271.19166666666666, N
97873, 271.86944444444447, N
98114, 272.5388888888889, N
98358, 273.21666666666664, N
98595, 273.875, N
98837, 274.5472222222222, N
99073, 275.2027777777778, N
99322, 275.89444444444445, N
99573, 276.59166666666664, N
99816, 277.26666666666665, N
100066, 277.9611111111111, N
100310, 278.6388888888889, N
100559, 279.3305555555556, N
100822, 280.06111111111113, N
101084, 280.7888888888889, N
101360, 281.55555555555554, N
101625, 282.2916666666667, N
101874, 282.98333333333335, N
102134, 283.7055555555556, N
102405, 284.4583333333333, N
102688, 285.24444444444447, N
102988, 286.0777777777778, N
103327, 287.01944444444445, N
103647, 287.90833333333336, N
103977, 288.825, N
104313, 289.7583333333333, N
104664, 290.73333333333335, N
105025, 291.7361111111111, N
105347, 292.63055555555553, N
105650, 293.47222222222223, N
105962, 294.3388888888889, N
106292, 295.25555555555553, N
106646, 296.2388888888889, N
107007, 297.2416666666667, N
107359, 298.21944444444443, N
107708, 299.18888888888887, N
108050, 300.1388888888889, N
108391, 301.0861111111111, N
108724, 302.0111111111111, N
109051, 302.9194444444444, N
109399, 303.8861111111111, N
109753, 304.86944444444447, N
110086, 305.7944444444444, N
110413, 306.7027777777778, N
110752, 307.64444444444445, N
111078, 308.55, N
111416, 309.4888888888889, N
111767, 310.4638888888889, N
112092, 311.3666666666667, N
112403, 312.23055555555555, N
112746, 313.18333333333334, N
113100, 314.1666666666667, N
113438, 315.10555555555555, N
113781, 316.05833333333334, N
114083, 316.89722222222224, N
114387, 317.7416666666667, N
114712, 318.64444444444445, N
115033, 319.5361111111111, N
115355, 320.43055555555554, N
115694, 321.3722222222222, N
116038, 322.3277777777778, N
116389, 323.3027777777778, N
116729, 324.2472222222222, N
117069, 325.19166666666666, N
117419, 326.1638888888889, N
117638, 326.77222222222224, +
117758, 327.10555555555555, N
117969, 327.69166666666666, +
118084, 328.0111111111111, N
118418, 328.93888888888887, N
118762, 329.89444444444445, N
119125, 330.90277777777777, N
119492, 331.9222222222222, N
119651, 332.3638888888889, +
119836, 332.8777777777778, N
120056, 333.4888888888889, +
120171, 333.80833333333334, N
120522, 334.78333333333336, N
120864, 335.73333333333335, N
121209, 336.69166666666666, N
121557, 337.65833333333336, N
121898, 338.60555555555555, N
122253, 339.59166666666664, N
122607, 340.575, N
122914, 341.4277777777778, N
123223, 342.2861111111111, N
123541, 343.1694444444444, N
123887, 344.13055555555553, N
124225, 345.06944444444446, N
124541, 345.9472222222222, N
124847, 346.7972222222222, N
125152, 347.64444444444445, N
125468, 348.52222222222224, N
125806, 349.4611111111111, N
126149, 350.4138888888889, N
126467, 351.2972222222222, N
126766, 352.1277777777778, N
127071, 352.975, N
127390, 353.8611111111111, N
127737, 354.825, N
128092, 355.81111111111113, N
128273, 356.31388888888887, +
128441, 356.78055555555557, N
128787, 357.7416666666667, N
129102, 358.6166666666667, N
129401, 359.4472222222222, N
129561, 359.89166666666665, +
129684, 360.23333333333335, N
129970, 361.02777777777777, N
130263, 361.84166666666664, N
130574, 362.7055555555556, N
130738, 363.1611111111111, +
130919, 363.6638888888889, N
131266, 364.6277777777778, N
131615, 365.59722222222223, N
131932, 366.47777777777776, N
132249, 367.35833333333335, N
132541, 368.1694444444444, N
132731, 368.6972222222222, +
132832, 368.97777777777776, N
133137, 369.825, N
133466, 370.7388888888889, N
133798, 371.6611111111111, N
134162, 372.6722222222222, N
134536, 373.7111111111111, N
134893, 374.7027777777778, N
135242, 375.6722222222222, N
135593, 376.64722222222224, N
135928, 377.5777777777778, N
136262, 378.50555555555553, N
136579, 379.3861111111111, N
136909, 380.3027777777778, N
137258, 381.27222222222224, N
137591, 382.1972222222222, N
137927, 383.13055555555553, N
138265, 384.06944444444446, N
138618, 385.05, N
138972, 386.03333333333336, N
139171, 386.5861111111111, +
139319, 386.9972222222222, N
139660, 387.94444444444446, N
139979, 388.8305555555556, N
140283, 389.675, N
140588, 390.52222222222224, N
140801, 391.1138888888889, +
140901, 391.39166666666665, N
141224, 392.2888888888889, N
141560, 393.22222222222223, N
141897, 394.15833333333336, N
142249, 395.1361111111111, N
142605, 396.125, N
142944, 397.06666666666666, N
143279, 397.9972222222222, N
143627, 398.9638888888889, N
143997, 399.9916666666667, N
144365, 401.0138888888889, N
144702, 401.95, N
145045, 402.90277777777777, N
145403, 403.89722222222224, N
145745, 404.84722222222223, N
146093, 405.81388888888887, N
146444, 406.7888888888889, N
146801, 407.78055555555557, N
146956, 408.2111111111111, +
147166, 408.7944444444444, N
147499, 409.71944444444443, N
147701, 410.28055555555557, +
147822, 410.6166666666667, N
148145, 411.5138888888889, N
148476, 412.43333333333334, N
148678, 412.99444444444447, +
148828, 413.4111111111111, N
149153, 414.31388888888887, N
149341, 414.8361111111111, +
149472, 415.2, N
149798, 416.10555555555555, N
150125, 417.0138888888889, N
150355, 417.65277777777777, +
150458, 417.93888888888887, N
150681, 418.55833333333334, +
150778, 418.8277777777778, N
151098, 419.71666666666664, N
151432, 420.64444444444445, N
151598, 421.10555555555555, +
151779, 421.60833333333335, N
152125, 422.56944444444446, N
152446, 423.4611111111111, N
152612, 423.9222222222222, +
152766, 424.35, N
153094, 425.2611111111111, N
153402, 426.1166666666667, N
153738, 427.05, N
154096, 428.0444444444444, N
154461, 429.05833333333334, N
154835, 430.09722222222223, N
155158, 430.99444444444447, N
155333, 431.48055555555555, +
155484, 431.9, N
155812, 432.81111111111113, N
156136, 433.7111111111111, N
156437, 434.5472222222222, N
156625, 435.06944444444446, +
156729, 435.35833333333335, N
157037, 436.2138888888889, N
157358, 437.10555555555555, N
157534, 437.59444444444443, +
157685, 438.0138888888889, N
158020, 438.94444444444446, N
158372, 439.9222222222222, N
158713, 440.86944444444447, N
159055, 441.81944444444446, N
159359, 442.6638888888889, N
159661, 443.5027777777778, N
159966, 444.35, N
160289, 445.2472222222222, N
160612, 446.14444444444445, N
160934, 447.0388888888889, N
161230, 447.8611111111111, N
161515, 448.65277777777777, N
161794, 449.4277777777778, N
162084, 450.23333333333335, N
162398, 451.10555555555555, N
162587, 451.63055555555553, +
162705, 451.9583333333333, N
163031, 452.8638888888889, N
163363, 453.7861111111111, N
163547, 454.2972222222222, +
163697, 454.7138888888889, N
163872, 455.2, +
163993, 455.5361111111111, N
164281, 456.3361111111111, N
164566, 457.1277777777778, N
164846, 457.90555555555557, N
165132, 458.7, N
165434, 459.5388888888889, N
165758, 460.43888888888887, N
165950, 460.97222222222223, +
166088, 461.35555555555555, N
166278, 461.8833333333333, +
166398, 462.21666666666664, N
166718, 463.10555555555555, N
166898, 463.60555555555555, +
167038, 463.99444444444447, N
167221, 464.5027777777778, +
167345, 464.84722222222223, N
167650, 465.69444444444446, N
167957, 466.5472222222222, N
168268, 467.4111111111111, N
168588, 468.3, N
168729, 468.69166666666666, +
168914, 469.2055555555556, N
169214, 470.0388888888889, N
169417, 470.60277777777776, +
169520, 470.8888888888889, N
169834, 471.7611111111111, N
170164, 472.6777777777778, N
170337, 473.15833333333336, +
170487, 473.575, N
170792, 474.4222222222222, N
170986, 474.9611111111111, +
171094, 475.2611111111111, N
171408, 476.1333333333333, N
171736, 477.0444444444444, N
171926, 477.5722222222222, +
172068, 477.96666666666664, N
172283, 478.56388888888887, +
172388, 478.85555555555555, N
172713, 479.7583333333333, N
173045, 480.68055555555554, N
173393, 481.64722222222224, N
173736, 482.6, N
173907, 483.075, +
174065, 483.5138888888889, N
174388, 484.4111111111111, N
174701, 485.28055555555557, N
174873, 485.7583333333333, +
175001, 486.1138888888889, N
175308, 486.96666666666664, N
175631, 487.8638888888889, N
175963, 488.7861111111111, N
176305, 489.7361111111111, N
176664, 490.73333333333335, N
177025, 491.7361111111111, N
177219, 492.275, +
177353, 492.64722222222224, N
177538, 493.1611111111111, +
177657, 493.4916666666667, N
177969, 494.35833333333335, N
178293, 495.2583333333333, N
178457, 495.7138888888889, +
178643, 496.23055555555555, N
178985, 497.18055555555554, N
179325, 498.125, N
179639, 498.9972222222222, N
179855, 499.59722222222223, +
179965, 499.90277777777777, N
180275, 500.7638888888889, N
180599, 501.6638888888889, N
180919, 502.5527777777778, N
181257, 503.4916666666667, N
181405, 503.90277777777777, +
181604, 504.4555555555556, N
181922, 505.3388888888889, N
182141, 505.9472222222222, +
182242, 506.22777777777776, N
182566, 507.1277777777778, N
182896, 508.0444444444444, N
183241, 509.0027777777778, N
183442, 509.56111111111113, +
183579, 509.94166666666666, N
183921, 510.89166666666665, N
184249, 511.8027777777778, N
184575, 512.7083333333334, N
184907, 513.6305555555556, N
185217, 514.4916666666667, N
185517, 515.325, N
185801, 516.1138888888889, N
186077, 516.8805555555556, N
186376, 517.7111111111111, N
186690, 518.5833333333334, N
187019, 519.4972222222223, N
187350, 520.4166666666666, N
187695, 521.375, N
188007, 522.2416666666667, N
188328, 523.1333333333333, N
188658, 524.05, N
188971, 524.9194444444445, N
189282, 525.7833333333333, N
189598, 526.6611111111112, N
189828, 527.3, +
189928, 527.5777777777778, N
190257, 528.4916666666667, N
190589, 529.4138888888889, N
190932, 530.3666666666667, N
191248, 531.2444444444444, N
191576, 532.1555555555556, N
191914, 533.0944444444444, N
192257, 534.0472222222222, N
192389, 534.4138888888889, +
192604, 535.0111111111111, N
192933, 535.925, N
193163, 536.5638888888889, +
193263, 536.8416666666667, N
193600, 537.7777777777778, N
193929, 538.6916666666667, N
194273, 539.6472222222222, N
194464, 540.1777777777778, +
194604, 540.5666666666667, N
194833, 541.2027777777778, +
194931, 541.475, N
195265, 542.4027777777778, N
195604, 543.3444444444444, N
195833, 543.9805555555556, +
195953, 544.3138888888889, N
196307, 545.2972222222222, N
196634, 546.2055555555555, N
196959, 547.1083333333333, N
197292, 548.0333333333333, N
197626, 548.9611111111111, N
197948, 549.8555555555556, N
198273, 550.7583333333333, N
198600, 551.6666666666666, N
198909, 552.525, N
199090, 553.0277777777778, +
199216, 553.3777777777777, N
199530, 554.25, N
199831, 555.0861111111111, N
200145, 555.9583333333334, N
200467, 556.8527777777778, N
200803, 557.7861111111112, N
201114, 558.65, N
201435, 559.5416666666666, N
201757, 560.4361111111111, N
202068, 561.3, N
202378, 562.1611111111112, N
202701, 563.0583333333333, N
202854, 563.4833333333333, +
203030, 563.9722222222222, N
203360, 564.8888888888889, N
203673, 565.7583333333333, N
203890, 566.3611111111111, +
203983, 566.6194444444444, N
204288, 567.4666666666667, N
204459, 567.9416666666667, +
204578, 568.2722222222222, N
204858, 569.05, N
205117, 569.7694444444444, N
205367, 570.4638888888888, N
205614, 571.15, N
205865, 571.8472222222222, N
206113, 572.5361111111112, N
206355, 573.2083333333334, N
206617, 573.9361111111111, N
206944, 574.8444444444444, N
207291, 575.8083333333333, N
207631, 576.7527777777777, N
207866, 577.4055555555556, +
207987, 577.7416666666667, N
208337, 578.7138888888888, N
208669, 579.6361111111111, N
209001, 580.5583333333333, N
209329, 581.4694444444444, N
209643, 582.3416666666667, N
209957, 583.2138888888888, N
210279, 584.1083333333333, N
210493, 584.7027777777778, +
210615, 585.0416666666666, N
210952, 585.9777777777778, N
211293, 586.925, N
211621, 587.8361111111111, N
211860, 588.5, +
211949, 588.7472222222223, N
212278, 589.6611111111112, N
212504, 590.2888888888889, +
212616, 590.6, N
212939, 591.4972222222223, N
213262, 592.3944444444444, N
213572, 593.2555555555556, N
213867, 594.075, N
214147, 594.8527777777778, N
214426, 595.6277777777777, N
214727, 596.4638888888888, N
215062, 597.3944444444444, N
215403, 598.3416666666667, N
215752, 599.3111111111111, N
215985, 599.9583333333334, +
216078, 600.2166666666667, N
216399, 601.1083333333333, N
216716, 601.9888888888889, N
217051, 602.9194444444445, N
217393, 603.8694444444444, N
217730, 604.8055555555555, N
218062, 605.7277777777778, N
218395, 606.6527777777778, N
218724, 607.5666666666667, N
219054, 608.4833333333333, N
219383, 609.3972222222222, N
219714, 610.3166666666667, N
220043, 611.2305555555556, N
220375, 612.1527777777778, N
220693, 613.0361111111112, N
221018, 613.9388888888889, N
221191, 614.4194444444445, +
221345, 614.8472222222222, N
221653, 615.7027777777778, N
221855, 616.2638888888889, +
221954, 616.5388888888889, N
222267, 617.4083333333333, N
222464, 617.9555555555555, +
222591, 618.3083333333333, N
222918, 619.2166666666667, N
223228, 620.0777777777778, N
223544, 620.9555555555555, N
223855, 621.8194444444445, N
224174, 622.7055555555555, N
224489, 623.5805555555555, N
224796, 624.4333333333333, N
225111, 625.3083333333333, N
225426, 626.1833333333333, N
225742, 627.0611111111111, N
225946, 627.6277777777777, +
226065, 627.9583333333334, N
226390, 628.8611111111111, N
226709, 629.7472222222223, N
227042, 630.6722222222222, N
227366, 631.5722222222222, N
227701, 632.5027777777777, N
228035, 633.4305555555555, N
228205, 633.9027777777778, +
228363, 634.3416666666667, N
228679, 635.2194444444444, N
229009, 636.1361111111111, N
229338, 637.05, N
229659, 637.9416666666667, N
229977, 638.825, N
230191, 639.4194444444445, +
230302, 639.7277777777778, N
230633, 640.6472222222222, N
230839, 641.2194444444444, +
230956, 641.5444444444445, N
231155, 642.0972222222222, +
231249, 642.3583333333333, N
231539, 643.1638888888889, N
231725, 643.6805555555555, +
231827, 643.9638888888888, N
232148, 644.8555555555556, N
232484, 645.7888888888889, N
232805, 646.6805555555555, N
233120, 647.5555555555555, N
233440, 648.4444444444445, N
233757, 649.325, N
234069, 650.1916666666667, N
234375, 651.0416666666666, N
234687, 651.9083333333333, N
235012, 652.8111111111111, N
235350, 653.75, N
235686, 654.6833333333333, N
235904, 655.2888888888889, +
236022, 655.6166666666667, N
236360, 656.5555555555555, N
236570, 657.1388888888889, +
236692, 657.4777777777778, N
237006, 658.35, N
237217, 658.9361111111111, +
237323, 659.2305555555556, N
237648, 660.1333333333333, N
237832, 660.6444444444444, +
237967, 661.0194444444444, N
238282, 661.8944444444444, N
238524, 662.5666666666667, +
238625, 662.8472222222222, N
238969, 663.8027777777778, N
239292, 664.7, N
239610, 665.5833333333334, N
239941, 666.5027777777777, N
240114, 666.9833333333333, +
240252, 667.3666666666667, N
240447, 667.9083333333333, +
240555, 668.2083333333334, N
240864, 669.0666666666667, N
241179, 669.9416666666667, N
241374, 670.4833333333333, +
241504, 670.8444444444444, N
241827, 671.7416666666667, N
242135, 672.5972222222222, N
242442, 673.45, N
242754, 674.3166666666667, N
243071, 675.1972222222222, N
243376, 676.0444444444445, N
243673, 676.8694444444444, N
243979, 677.7194444444444, N
244279, 678.5527777777778, N
244570, 679.3611111111111, N
244863, 680.175, N
245171, 681.0305555555556, N
245481, 681.8916666666667, N
245797, 682.7694444444444, N
246113, 683.6472222222222, N
246424, 684.5111111111111, N
246716, 685.3222222222222, N
247012, 686.1444444444444, N
247310, 686.9722222222222, N
247602, 687.7833333333333, N
247900, 688.6111111111111, N
248089, 689.1361111111111, +
248224, 689.5111111111111, N
248567, 690.4638888888888, N
248753, 690.9805555555556, +
248897, 691.3805555555556, N
249102, 691.95, +
249219, 692.275, N
249566, 693.2388888888889, N
249906, 694.1833333333333, N
250238, 695.1055555555556, N
250571, 696.0305555555556, N
250746, 696.5166666666667, +
250883, 696.8972222222222, N
251084, 697.4555555555555, +
251193, 697.7583333333333, N
251522, 698.6722222222222, N
251868, 699.6333333333333, N
252209, 700.5805555555555, N
252558, 701.55, N
252911, 702.5305555555556, N
253098, 703.05, +
253239, 703.4416666666667, N
253558, 704.3277777777778, N
253873, 705.2027777777778, N
254177, 706.0472222222222, N
254480, 706.8888888888889, N
254789, 707.7472222222223, N
254988, 708.3, +
255103, 708.6194444444444, N
255424, 709.5111111111111, N
255746, 710.4055555555556, N
255955, 710.9861111111111, +
256068, 711.3, N
256376, 712.1555555555556, N
256691, 713.0305555555556, N
257010, 713.9166666666666, N
257326, 714.7944444444445, N
257624, 715.6222222222223, N
257930, 716.4722222222222, N
258247, 717.3527777777778, N
258547, 718.1861111111111, N
258852, 719.0333333333333, N
259166, 719.9055555555556, N
259489, 720.8027777777778, N
259819, 721.7194444444444, N
260130, 722.5833333333334, N
260426, 723.4055555555556, N
260717, 724.2138888888888, N
260999, 724.9972222222223, N
261309, 725.8583333333333, N
261641, 726.7805555555556, N
261960, 727.6666666666666, N
262263, 728.5083333333333, N
262576, 729.3777777777777, N
262890, 730.25, N
263204, 731.1222222222223, N
263522, 732.0055555555556, N
263831, 732.8638888888889, N
264144, 733.7333333333333, N
264441, 734.5583333333333, N
264737, 735.3805555555556, N
265040, 736.2222222222222, N
265350, 737.0833333333334, N
265660, 737.9444444444445, N
265976, 738.8222222222222, N
266259, 739.6083333333333, N
266546, 740.4055555555556, N
266838, 741.2166666666667, N
267125, 742.0138888888889, N
267411, 742.8083333333333, N
267696, 743.6, N
267984, 744.4, N
268279, 745.2194444444444, N
268587, 746.075, N
268895, 746.9305555555555, N
269210, 747.8055555555555, N
269505, 748.625, N
269808, 749.4666666666667, N
270107, 750.2972222222222, N
270399, 751.1083333333333, N
270694, 751.9277777777778, N
271001, 752.7805555555556, N
271327, 753.6861111111111, N
271546, 754.2944444444445, +
271662, 754.6166666666667, N
272001, 755.5583333333333, N
272342, 756.5055555555556, N
272562, 757.1166666666667, +
272675, 757.4305555555555, N
272983, 758.2861111111112, N
273281, 759.1138888888889, N
273582, 759.95, N
273887, 760.7972222222222, N
274094, 761.3722222222223, +
274214, 761.7055555555555, N
274550, 762.6388888888889, N
274883, 763.5638888888889, N
275212, 764.4777777777778, N
275408, 765.0222222222222, +
275530, 765.3611111111111, N
275847, 766.2416666666667, N
276160, 767.1111111111111, N
276459, 767.9416666666667, N
276758, 768.7722222222222, N
277065, 769.625, N
277383, 770.5083333333333, N
277716, 771.4333333333333, N
278040, 772.3333333333334, N
278367, 773.2416666666667, N
278688, 774.1333333333333, N
279012, 775.0333333333333, N
279313, 775.8694444444444, N
279617, 776.7138888888888, N
279933, 777.5916666666667, N
280251, 778.475, N
280569, 779.3583333333333, N
280885, 780.2361111111111, N
281208, 781.1333333333333, N
281530, 782.0277777777778, N
281847, 782.9083333333333, N
282159, 783.775, N
282478, 784.6611111111112, N
282807, 785.575, N
283138, 786.4944444444444, N
283437, 787.325, N
283741, 788.1694444444445, N
284052, 789.0333333333333, N
284386, 789.9611111111111, N
284706, 790.85, N
285015, 791.7083333333334, N
285332, 792.5888888888888, N
285651, 793.475, N
285873, 794.0916666666667, +
285979, 794.3861111111111, N
286306, 795.2944444444445, N
286490, 795.8055555555555, +
286605, 796.125, N
286898, 796.9388888888889, N
287184, 797.7333333333333, N
287494, 798.5944444444444, N
287807, 799.4638888888888, N
288134, 800.3722222222223, N
288472, 801.3111111111111, N
288786, 802.1833333333333, N
289107, 803.075, N
289440, 804.0, N
289768, 804.9111111111112, N
290083, 805.7861111111112, N
290398, 806.6611111111112, N
290722, 807.5611111111111, N
291052, 808.4777777777778, N
291373, 809.3694444444444, N
291687, 810.2416666666667, N
291977, 811.0472222222222, N
292256, 811.8222222222222, N
292544, 812.6222222222223, N
292850, 813.4722222222222, N
293169, 814.3583333333333, N
293500, 815.2777777777778, N
293819, 816.1638888888889, N
294138, 817.05, N
294454, 817.9277777777778, N
294773, 818.8138888888889, N
295099, 819.7194444444444, N
295434, 820.65, N
295771, 821.5861111111111, N
296088, 822.4666666666667, N
296388, 823.3, N
296677, 824.1027777777778, N
296986, 824.9611111111111, N
297309, 825.8583333333333, N
297631, 826.7527777777777, N
297928, 827.5777777777778, N
298212, 828.3666666666667, N
298493, 829.1472222222222, N
298776, 829.9333333333333, N
299073, 830.7583333333333, N
299361, 831.5583333333333, N
299651, 832.3638888888889, N
299957, 833.2138888888888, N
300266, 834.0722222222222, N
300583, 834.9527777777778, N
300888, 835.8, N
301199, 836.6638888888889, N
301511, 837.5305555555556, N
301800, 838.3333333333334, N
302088, 839.1333333333333, N
302383, 839.9527777777778, N
302689, 840.8027777777778, N
303002, 841.6722222222222, N
303316, 842.5444444444445, N
303619, 843.3861111111111, N
303927, 844.2416666666667, N
304226, 845.0722222222222, N
304528, 845.9111111111112, N
304837, 846.7694444444444, N
305137, 847.6027777777778, N
305422, 848.3944444444444, N
305704, 849.1777777777778, N
305993, 849.9805555555556, N
306293, 850.8138888888889, N
306586, 851.6277777777777, N
306897, 852.4916666666667, N
307230, 853.4166666666666, N
307537, 854.2694444444444, N
307841, 855.1138888888889, N
308152, 855.9777777777778, N
308466, 856.85, N
308770, 857.6944444444445, N
309056, 858.4888888888889, N
309329, 859.2472222222223, N
309603, 860.0083333333333, N
309875, 860.7638888888889, N
310166, 861.5722222222222, N
310479, 862.4416666666667, N
310804, 863.3444444444444, N
311130, 864.25, N
311326, 864.7944444444445, +
311471, 865.1972222222222, N
311811, 866.1416666666667, N
312148, 867.0777777777778, N
312317, 867.5472222222222, +
312476, 867.9888888888889, N
312665, 868.5138888888889, +
312778, 868.8277777777778, N
313080, 869.6666666666666, N
313386, 870.5166666666667, N
313688, 871.3555555555556, N
314000, 872.2222222222222, N
314327, 873.1305555555556, N
314659, 874.0527777777778, N
314846, 874.5722222222222, +
314995, 874.9861111111111, N
315198, 875.55, +
315315, 875.875, N
315639, 876.775, N
315852, 877.3666666666667, +
315965, 877.6805555555555, N
316253, 878.4805555555556, N
316432, 878.9777777777778, +
316536, 879.2666666666667, N
316829, 880.0805555555555, N
317126, 880.9055555555556, N
317429, 881.7472222222223, N
317746, 882.6277777777777, N
317940, 883.1666666666666, +
318068, 883.5222222222222, N
318377, 884.3805555555556, N
318587, 884.9638888888888, +
318699, 885.275, N
319021, 886.1694444444445, N
319218, 886.7166666666667, +
319334, 887.0388888888889, N
319518, 887.55, +
319628, 887.8555555555556, N
319927, 888.6861111111111, N
320116, 889.2111111111111, +
320243, 889.5638888888889, N
320554, 890.4277777777778, N
320869, 891.3027777777778, N
321172, 892.1444444444444, N
321461, 892.9472222222222, N
321743, 893.7305555555556, N
322029, 894.525, N
322323, 895.3416666666667, N
322609, 896.1361111111111, N
322900, 896.9444444444445, N
323092, 897.4777777777778, +
323201, 897.7805555555556, N
323521, 898.6694444444445, N
323856, 899.6, N
324185, 900.5138888888889, N
324524, 901.4555555555555, N
324856, 902.3777777777777, N
325192, 903.3111111111111, N
325363, 903.7861111111112, +
325523, 904.2305555555556, N
325837, 905.1027777777778, N
326140, 905.9444444444445, N
326443, 906.7861111111112, N
326749, 907.6361111111111, N
327056, 908.4888888888889, N
327372, 909.3666666666667, N
327676, 910.2111111111111, N
327882, 910.7833333333333, +
327988, 911.0777777777778, N
328300, 911.9444444444445, N
328615, 912.8194444444445, N
328786, 913.2944444444445, +
328930, 913.6944444444445, N
329223, 914.5083333333333, N
329403, 915.0083333333333, +
329510, 915.3055555555555, N
329805, 916.125, N
330106, 916.9611111111111, N
330418, 917.8277777777778, N
330623, 918.3972222222222, +
330739, 918.7194444444444, N
331050, 919.5833333333334, N
331271, 920.1972222222222, +
331364, 920.4555555555555, N
331688, 921.3555555555556, N
332007, 922.2416666666667, N
332335, 923.1527777777778, N
332668, 924.0777777777778, N
333003, 925.0083333333333, N
333346, 925.9611111111111, N
333684, 926.9, N
334019, 927.8305555555555, N
334212, 928.3666666666667, +
334344, 928.7333333333333, N
334534, 929.2611111111111, +
334656, 929.6, N
334827, 930.075, +
334970, 930.4722222222222, N
335294, 931.3722222222223, N
335626, 932.2944444444445, N
335960, 933.2222222222222, N
336306, 934.1833333333333, N
336641, 935.1138888888889, N
336959, 935.9972222222223, N
337261, 936.8361111111111, N
337559, 937.6638888888889, N
337847, 938.4638888888888, N
338148, 939.3, N
338472, 940.2, N
338801, 941.1138888888889, N
339126, 942.0166666666667, N
339352, 942.6444444444444, +
339459, 942.9416666666667, N
339798, 943.8833333333333, N
340136, 944.8222222222222, N
340462, 945.7277777777778, N
340675, 946.3194444444445, +
340790, 946.6388888888889, N
341107, 947.5194444444444, N
341425, 948.4027777777778, N
341740, 949.2777777777778, N
342036, 950.1, N
342314, 950.8722222222223, N
342592, 951.6444444444444, N
342882, 952.45, N
343182, 953.2833333333333, N
343510, 954.1944444444445, N
343839, 955.1083333333333, N
344159, 955.9972222222223, N
344360, 956.5555555555555, +
344479, 956.8861111111111, N
344814, 957.8166666666667, N
345148, 958.7444444444444, N
345358, 959.3277777777778, +
345472, 959.6444444444444, N
345787, 960.5194444444444, N
346088, 961.3555555555556, N
346382, 962.1722222222222, N
346664, 962.9555555555555, N
346940, 963.7222222222222, N
347226, 964.5166666666667, N
347536, 965.3777777777777, N
347866, 966.2944444444445, N
348188, 967.1888888888889, N
348512, 968.0888888888888, N
348822, 968.95, N
349025, 969.5138888888889, +
349130, 969.8055555555555, N
349447, 970.6861111111111, N
349753, 971.5361111111112, N
350060, 972.3888888888889, N
350252, 972.9222222222222, +
350362, 973.2277777777778, N
350658, 974.05, N
350943, 974.8416666666667, N
351226, 975.6277777777777, N
351503, 976.3972222222222, N
351763, 977.1194444444444, N
352022, 977.8388888888888, N
352279, 978.5527777777778, N
352542, 979.2833333333333, N
352833, 980.0916666666667, N
353146, 980.9611111111111, N
353439, 981.775, N
353742, 982.6166666666667, N
354048, 983.4666666666667, N
354348, 984.3, N
354633, 985.0916666666667, N
354912, 985.8666666666667, N
355194, 986.65, N
355471, 987.4194444444445, N
355758, 988.2166666666667, N
356056, 989.0444444444445, N
356360, 989.8888888888889, N
356674, 990.7611111111111, N
356986, 991.6277777777777, N
357297, 992.4916666666667, N
357605, 993.3472222222222, N
357917, 994.2138888888888, N
358239, 995.1083333333333, N
358562, 996.0055555555556, N
358866, 996.85, N
359162, 997.6722222222222, N
359448, 998.4666666666667, N
359726, 999.2388888888889, N
359991, 999.975, N
360263, 1000.7305555555556, N
360564, 1001.5666666666667, N
360886, 1002.4611111111111, N
361195, 1003.3194444444445, N
361500, 1004.1666666666666, N
361686, 1004.6833333333333, +
361811, 1005.0305555555556, N
362110, 1005.8611111111111, N
362419, 1006.7194444444444, N
362708, 1007.5222222222222, N
362994, 1008.3166666666667, N
363275, 1009.0972222222222, N
363558, 1009.8833333333333, N
363718, 1010.3277777777778, +
363847, 1010.6861111111111, N
364138, 1011.4944444444444, N
364422, 1012.2833333333333, N
364688, 1013.0222222222222, N
364950, 1013.75, N
365206, 1014.4611111111111, N
365473, 1015.2027777777778, N
365756, 1015.9888888888889, N
366042, 1016.7833333333333, N
366329, 1017.5805555555555, N
366623, 1018.3972222222222, N
366923, 1019.2305555555556, N
367206, 1020.0166666666667, N
367488, 1020.8, N
367766, 1021.5722222222222, N
368038, 1022.3277777777778, N
368320, 1023.1111111111111, N
368609, 1023.9138888888889, N
368907, 1024.7416666666666, N
369194, 1025.5388888888888, N
369470, 1026.3055555555557, N
369657, 1026.825, +
369744, 1027.0666666666666, N
370024, 1027.8444444444444, N
370305, 1028.625, N
370591, 1029.4194444444445, N
370874, 1030.2055555555555, N
371153, 1030.9805555555556, N
371431, 1031.7527777777777, N
371707, 1032.5194444444444, N
371998, 1033.3277777777778, N
372303, 1034.175, N
372621, 1035.0583333333334, N
372946, 1035.9611111111112, N
373147, 1036.5194444444444, +
373275, 1036.875, N
373579, 1037.7194444444444, N
373758, 1038.2166666666667, +
373877, 1038.5472222222222, N
374172, 1039.3666666666666, N
374468, 1040.1888888888889, N
374641, 1040.6694444444445, +
374761, 1041.0027777777777, N
375046, 1041.7944444444445, N
375337, 1042.6027777777779, N
375628, 1043.411111111111, N
375806, 1043.9055555555556, +
375929, 1044.2472222222223, N
376233, 1045.0916666666667, N
376541, 1045.9472222222223, N
376856, 1046.8222222222223, N
377166, 1047.6833333333334, N
377483, 1048.5638888888889, N
377798, 1049.4388888888889, N
378099, 1050.275, N
378386, 1051.0722222222223, N
378664, 1051.8444444444444, N
378941, 1052.6138888888888, N
379232, 1053.4222222222222, N
379531, 1054.2527777777777, N
379843, 1055.1194444444445, N
380160, 1056.0, N
380490, 1056.9166666666667, N
380821, 1057.8361111111112, N
380973, 1058.2583333333334, +
381126, 1058.6833333333334, N
381293, 1059.1472222222221, +
381427, 1059.5194444444444, N
381730, 1060.361111111111, N
381927, 1060.9083333333333, +
382046, 1061.2388888888888, N
382358, 1062.1055555555556, N
382563, 1062.675, +
382670, 1062.9722222222222, N
382996, 1063.8777777777777, N
383328, 1064.8, N
383539, 1065.3861111111112, +
383664, 1065.7333333333333, N
383983, 1066.6194444444445, N
384279, 1067.4416666666666, N
384572, 1068.2555555555555, N
384773, 1068.8138888888889, +
384863, 1069.0638888888889, N
385168, 1069.911111111111, N
385474, 1070.7611111111112, N
385793, 1071.6472222222221, N
385948, 1072.0777777777778, +
386105, 1072.513888888889, N
386314, 1073.0944444444444, +
386413, 1073.3694444444445, N
386716, 1074.2111111111112, N
387028, 1075.0777777777778, N
387350, 1075.9722222222222, N
387679, 1076.8861111111112, N
388006, 1077.7944444444445, N
388212, 1078.3666666666666, +
388340, 1078.7222222222222, N
388661, 1079.6138888888888, N
388864, 1080.1777777777777, +
388985, 1080.513888888889, N
389305, 1081.4027777777778, N
389523, 1082.0083333333334, +
389632, 1082.3111111111111, N
389957, 1083.213888888889, N
390283, 1084.1194444444445, N
390605, 1085.013888888889, N
390922, 1085.8944444444444, N
391207, 1086.6861111111111, N
391486, 1087.4611111111112, N
391766, 1088.2388888888888, N
392023, 1088.9527777777778, N
392288, 1089.6888888888889, N
392564, 1090.4555555555555, N
392861, 1091.2805555555556, N
393174, 1092.15, N
393478, 1092.9944444444445, N
393671, 1093.5305555555556, +
393771, 1093.8083333333334, N
394055, 1094.5972222222222, N
394333, 1095.3694444444445, N
394603, 1096.1194444444445, N
394873, 1096.8694444444445, N
395139, 1097.6083333333333, N
395394, 1098.3166666666666, N
395639, 1098.9972222222223, N
395884, 1099.6777777777777, N
396126, 1100.35, N
396272, 1100.7555555555555, +
396364, 1101.0111111111112, N
396605, 1101.6805555555557, N
396844, 1102.3444444444444, N
397087, 1103.0194444444444, N
397320, 1103.6666666666667, N
397552, 1104.3111111111111, N
397780, 1104.9444444444443, N
398010, 1105.5833333333333, N
398236, 1106.2111111111112, N
398458, 1106.8277777777778, N
398679, 1107.4416666666666, N
398893, 1108.036111111111, N
399113, 1108.6472222222221, N
399337, 1109.2694444444444, N
399570, 1109.9166666666667, N
399809, 1110.5805555555555, N
400052, 1111.2555555555555, N
400308, 1111.9666666666667, N
400554, 1112.65, N
400808, 1113.3555555555556, N
401060, 1114.0555555555557, N
401325, 1114.7916666666667, N
401600, 1115.5555555555557, N
401873, 1116.3138888888889, N
402139, 1117.0527777777777, N
402397, 1117.7694444444444, N
402650, 1118.4722222222222, N
402910, 1119.1944444444443, N
403177, 1119.9361111111111, N
403434, 1120.65, N
403684, 1121.3444444444444, N
403929, 1122.025, N
404162, 1122.6722222222222, N
404399, 1123.3305555555555, N
404645, 1124.013888888889, N
404901, 1124.725, N
405162, 1125.45, N
405426, 1126.1833333333334, N
405697, 1126.9361111111111, N
405975, 1127.7083333333333, N
406245, 1128.4583333333333, N
406515, 1129.2083333333333, N
406783, 1129.9527777777778, N
407028, 1130.6333333333334, N
407271, 1131.3083333333334, N
407497, 1131.9361111111111, N
407727, 1132.575, N
407951, 1133.1972222222223, N
408177, 1133.825, N
408406, 1134.4611111111112, N
408646, 1135.1277777777777, N
408895, 1135.8194444444443, N
409153, 1136.536111111111, N
409329, 1137.025, +
409413, 1137.2583333333334, N
409698, 1138.05, N
409980, 1138.8333333333333, N
410248, 1139.5777777777778, N
410517, 1140.325, N
410776, 1141.0444444444445, N
411036, 1141.7666666666667, N
411298, 1142.4944444444445, N
411551, 1143.1972222222223, N
411805, 1143.9027777777778, N
412056, 1144.6, N
412309, 1145.3027777777777, N
412570, 1146.0277777777778, N
412837, 1146.7694444444444, N
413101, 1147.5027777777777, N
413371, 1148.2527777777777, N
413640, 1149.0, N
413903, 1149.7305555555556, N
414069, 1150.1916666666666, +
414167, 1150.463888888889, N
414348, 1150.9666666666667, +
414432, 1151.2, N
414686, 1151.9055555555556, N
414937, 1152.6027777777779, N
415174, 1153.2611111111112, N
415323, 1153.675, +
415421, 1153.9472222222223, N
415667, 1154.6305555555555, N
415912, 1155.3111111111111, N
416162, 1156.0055555555555, N
416316, 1156.4333333333334, +
416410, 1156.6944444444443, N
416654, 1157.3722222222223, N
416900, 1158.0555555555557, N
417049, 1158.4694444444444, +
417145, 1158.736111111111, N
417394, 1159.4277777777777, N
417658, 1160.161111111111, N
417919, 1160.8861111111112, N
418178, 1161.6055555555556, N
418432, 1162.3111111111111, N
418678, 1162.9944444444445, N
418920, 1163.6666666666667, N
419164, 1164.3444444444444, N
419412, 1165.0333333333333, N
419657, 1165.713888888889, N
419901, 1166.3916666666667, N
420152, 1167.088888888889, N
420405, 1167.7916666666667, N
420660, 1168.5, N
420825, 1168.9583333333333, +
420921, 1169.225, N
421181, 1169.9472222222223, N
421442, 1170.6722222222222, N
421689, 1171.3583333333333, N
421948, 1172.0777777777778, N
422198, 1172.7722222222221, N
422442, 1173.45, N
422596, 1173.8777777777777, +
422691, 1174.1416666666667, N
422934, 1174.8166666666666, N
423171, 1175.475, N
423406, 1176.1277777777777, N
423638, 1176.7722222222221, N
423874, 1177.4277777777777, N
424114, 1178.0944444444444, N
424362, 1178.7833333333333, N
424611, 1179.475, N
424855, 1180.1527777777778, N
425102, 1180.838888888889, N
425355, 1181.5416666666667, N
425608, 1182.2444444444445, N
425870, 1182.9722222222222, N
426147, 1183.7416666666666, N
426424, 1184.5111111111112, N
426702, 1185.2833333333333, N
426976, 1186.0444444444445, N
427248, 1186.8, N
427529, 1187.5805555555555, N
427797, 1188.325, N
428071, 1189.0861111111112, N
428354, 1189.8722222222223, N
428627, 1190.6305555555555, N
428899, 1191.3861111111112, N
429181, 1192.1694444444445, N
429454, 1192.9277777777777, N
429725, 1193.6805555555557, N
429997, 1194.4361111111111, N
430257, 1195.1583333333333, N
430441, 1195.6694444444445, +
430533, 1195.925, N
430810, 1196.6944444444443, N
431082, 1197.45, N
431360, 1198.2222222222222, N
431624, 1198.9555555555555, N
431783, 1199.3972222222221, +
431889, 1199.6916666666666, N
432161, 1200.4472222222223, N
432432, 1201.2, N
432713, 1201.9805555555556, N
432996, 1202.7666666666667, N
433278, 1203.55, N
433563, 1204.3416666666667, N
433861, 1205.1694444444445, N
434142, 1205.95, N
434422, 1206.7277777777779, N
434711, 1207.5305555555556, N
435011, 1208.3638888888888, N
435316, 1209.2111111111112, N
435631, 1210.0861111111112, N
435936, 1210.9333333333334, N
436230, 1211.75, N
436527, 1212.575, N
436810, 1213.361111111111, N
437096, 1214.1555555555556, N
437387, 1214.963888888889, N
437683, 1215.786111111111, N
437981, 1216.6138888888888, N
438282, 1217.45, N
438593, 1218.3138888888889, N
438907, 1219.1861111111111, N
439209, 1220.025, N
439512, 1220.8666666666666, N
439819, 1221.7194444444444, N
440113, 1222.536111111111, N
440413, 1223.3694444444445, N
440716, 1224.2111111111112, N
441019, 1225.0527777777777, N
441313, 1225.8694444444445, N
441608, 1226.6888888888889, N
441906, 1227.5166666666667, N
442199, 1228.3305555555555, N
442482, 1229.1166666666666, N
442759, 1229.8861111111112, N
443027, 1230.6305555555555, N
443299, 1231.3861111111112, N
443576, 1232.1555555555556, N
443861, 1232.9472222222223, N
444143, 1233.7305555555556, N
444431, 1234.5305555555556, N
444728, 1235.3555555555556, N
445029, 1236.1916666666666, N
445333, 1237.036111111111, N
445629, 1237.8583333333333, N
445928, 1238.6888888888889, N
446210, 1239.4722222222222, N
446489, 1240.2472222222223, N
446765, 1241.013888888889, N
447046, 1241.7944444444445, N
447328, 1242.5777777777778, N
447619, 1243.3861111111112, N
447917, 1244.213888888889, N
448222, 1245.0611111111111, N
448528, 1245.911111111111, N
448830, 1246.75, N
449132, 1247.588888888889, N
449420, 1248.388888888889, N
449705, 1249.1805555555557, N
449996, 1249.9888888888888, N
450301, 1250.8361111111112, N
450594, 1251.65, N
450891, 1252.475, N
451197, 1253.325, N
451513, 1254.2027777777778, N
451828, 1255.0777777777778, N
452150, 1255.9722222222222, N
452474, 1256.8722222222223, N
452789, 1257.7472222222223, N
453091, 1258.5861111111112, N
453403, 1259.4527777777778, N
453713, 1260.3138888888889, N
454002, 1261.1166666666666, N
454288, 1261.911111111111, N
454586, 1262.7388888888888, N
454859, 1263.4972222222223, N
455137, 1264.2694444444444, N
455417, 1265.0472222222222, N
455689, 1265.8027777777777, N
455943, 1266.5083333333334, N
456188, 1267.1888888888889, N
456438, 1267.8833333333334, N
456701, 1268.6138888888888, N
456976, 1269.3777777777777, N
457262, 1270.1722222222222, N
457548, 1270.9666666666667, N
457836, 1271.7666666666667, N
458132, 1272.588888888889, N
458423, 1273.3972222222221, N
458699, 1274.1638888888888, N
458960, 1274.888888888889, N
459222, 1275.6166666666666, N
459484, 1276.3444444444444, N
459753, 1277.0916666666667, N
460026, 1277.85, N
460286, 1278.5722222222223, N
460560, 1279.3333333333333, N
460827, 1280.075, N
461102, 1280.838888888889, N
461390, 1281.638888888889, N
461683, 1282.4527777777778, N
461980, 1283.2777777777778, N
462266, 1284.0722222222223, N
462546, 1284.85, N
462827, 1285.6305555555555, N
463120, 1286.4444444444443, N
463411, 1287.2527777777777, N
463700, 1288.0555555555557, N
463991, 1288.8638888888888, N
464293, 1289.7027777777778, N
464577, 1290.4916666666666, N
464863, 1291.286111111111, N
465143, 1292.0638888888889, N
465410, 1292.8055555555557, N
465670, 1293.5277777777778, N
465930, 1294.25, N
466205, 1295.013888888889, N
466496, 1295.8222222222223, N
466781, 1296.6138888888888, N
467081, 1297.4472222222223, N
467390, 1298.3055555555557, N
467687, 1299.1305555555555, N
467979, 1299.9416666666666, N
468272, 1300.7555555555555, N
468551, 1301.5305555555556, N
468821, 1302.2805555555556, N
469089, 1303.025, N
469350, 1303.75, N
469623, 1304.5083333333334, N
469903, 1305.286111111111, N
470189, 1306.0805555555555, N
470460, 1306.8333333333333, N
470744, 1307.6222222222223, N
471032, 1308.4222222222222, N
471312, 1309.2, N
471603, 1310.0083333333334, N
471897, 1310.825, N
472194, 1311.65, N
472480, 1312.4444444444443, N
472771, 1313.2527777777777, N
473063, 1314.0638888888889, N
473352, 1314.8666666666666, N
473631, 1315.6416666666667, N
473915, 1316.4305555555557, N
474202, 1317.2277777777779, N
474476, 1317.9888888888888, N
474744, 1318.7333333333333, N
475009, 1319.4694444444444, N
475263, 1320.175, N
475530, 1320.9166666666667, N
475799, 1321.6638888888888, N
476082, 1322.45, N
476377, 1323.2694444444444, N
476671, 1324.0861111111112, N
476960, 1324.888888888889, N
477240, 1325.6666666666667, N
477529, 1326.4694444444444, N
477808, 1327.2444444444445, N
478088, 1328.0222222222221, N
478371, 1328.8083333333334, N
478650, 1329.5833333333333, N
478929, 1330.3583333333333, N
479208, 1331.1333333333334, N
479488, 1331.911111111111, N
479767, 1332.6861111111111, N
480044, 1333.4555555555555, N
480324, 1334.2333333333333, N
480610, 1335.0277777777778, N
480899, 1335.8305555555555, N
481189, 1336.6361111111112, N
481477, 1337.4361111111111, N
481762, 1338.2277777777779, N
482039, 1338.9972222222223, N
482308, 1339.7444444444445, N
482580, 1340.5, N
482853, 1341.2583333333334, N
483117, 1341.9916666666666, N
483379, 1342.7194444444444, N
483656, 1343.4888888888888, N
483950, 1344.3055555555557, N
484243, 1345.1194444444445, N
484543, 1345.9527777777778, N
484847, 1346.7972222222222, N
485143, 1347.6194444444445, N
485437, 1348.4361111111111, N
485715, 1349.2083333333333, N
485990, 1349.9722222222222, N
486252, 1350.7, N
486519, 1351.4416666666666, N
486788, 1352.1888888888889, N
487051, 1352.9194444444445, N
487319, 1353.6638888888888, N
487582, 1354.3944444444444, N
487857, 1355.1583333333333, N
488144, 1355.9555555555555, N
488430, 1356.75, N
488718, 1357.55, N
489010, 1358.361111111111, N
489302, 1359.1722222222222, N
489584, 1359.9555555555555, N
489863, 1360.7305555555556, N
490128, 1361.4666666666667, N
490396, 1362.2111111111112, N
490666, 1362.9611111111112, N
490947, 1363.7416666666666, N
491226, 1364.5166666666667, N
491505, 1365.2916666666667, N
491794, 1366.0944444444444, N
492078, 1366.8833333333334, N
492366, 1367.6833333333334, N
492656, 1368.4888888888888, N
492938, 1369.2722222222221, N
493217, 1370.0472222222222, N
493494, 1370.8166666666666, N
493763, 1371.5638888888889, N
494032, 1372.3111111111111, N
494316, 1373.1, N
494613, 1373.925, N
494892, 1374.7, N
495176, 1375.4888888888888, N
495456, 1376.2666666666667, N
495745, 1377.0694444444443, N
496040, 1377.888888888889, N
496347, 1378.7416666666666, N
496640, 1379.5555555555557, N
496935, 1380.375, N
497215, 1381.1527777777778, N
497497, 1381.9361111111111, N
497772, 1382.7, N
498036, 1383.4333333333334, N
498309, 1384.1916666666666, N
498587, 1384.963888888889, N
498873, 1385.7583333333334, N
499169, 1386.5805555555555, N
499466, 1387.4055555555556, N
499750, 1388.1944444444443, N
500051, 1389.0305555555556, N
500353, 1389.8694444444445, N
500651, 1390.6972222222223, N
500946, 1391.5166666666667, N
501235, 1392.3194444444443, N
501512, 1393.088888888889, N
501785, 1393.8472222222222, N
502060, 1394.611111111111, N
502336, 1395.3777777777777, N
502594, 1396.0944444444444, N
502853, 1396.8138888888889, N
503107, 1397.5194444444444, N
503360, 1398.2222222222222, N
503620, 1398.9444444444443, N
503890, 1399.6944444444443, N
504166, 1400.4611111111112, N
504439, 1401.2194444444444, N
504704, 1401.9555555555555, N
504964, 1402.6777777777777, N
505233, 1403.425, N
505494, 1404.15, N
505750, 1404.861111111111, N
506010, 1405.5833333333333, N
506264, 1406.2888888888888, N
506512, 1406.9777777777779, N
506768, 1407.6888888888889, N
507027, 1408.4083333333333, N
507282, 1409.1166666666666, N
507535, 1409.8194444444443, N
507787, 1410.5194444444444, N
508039, 1411.2194444444444, N
508203, 1411.675, +
508284, 1411.9, N
508527, 1412.575, N
508766, 1413.2388888888888, N
509002, 1413.8944444444444, N
509236, 1414.5444444444445, N
509472, 1415.2, N
509712, 1415.8666666666666, N
509963, 1416.5638888888889, N
510214, 1417.2611111111112, N
510474, 1417.9833333333333, N
510731, 1418.6972222222223, N
510977, 1419.3805555555555, N
511223, 1420.0638888888889, N
511470, 1420.75, N
511624, 1421.1777777777777, +
511717, 1421.4361111111111, N
511969, 1422.1361111111112, N
512221, 1422.8361111111112, N
512476, 1423.5444444444445, N
512724, 1424.2333333333333, N
512901, 1424.725, +
512979, 1424.9416666666666, N
513245, 1425.6805555555557, N
513520, 1426.4444444444443, N
513798, 1427.2166666666667, N
514075, 1427.986111111111, N
514363, 1428.786111111111, N
514658, 1429.6055555555556, N
514946, 1430.4055555555556, N
515248, 1431.2444444444445, N
515558, 1432.1055555555556, N
515753, 1432.6472222222221, +
515862, 1432.95, N
516058, 1433.4944444444445, +
516163, 1433.786111111111, N
516474, 1434.65, N
516776, 1435.4888888888888, N
517078, 1436.3277777777778, N
517380, 1437.1666666666667, N
517591, 1437.7527777777777, +
517674, 1437.9833333333333, N
517949, 1438.7472222222223, N
518147, 1439.2972222222222, +
518233, 1439.536111111111, N
518514, 1440.3166666666666, N
518778, 1441.05, N
519038, 1441.7722222222221, N
519292, 1442.4777777777779, N
519557, 1443.213888888889, N
519834, 1443.9833333333333, N
520122, 1444.7833333333333, N
520405, 1445.5694444444443, N
520695, 1446.375, N
520990, 1447.1944444444443, N
521278, 1447.9944444444445, N
521587, 1448.8527777777779, N
521905, 1449.736111111111, N
522128, 1450.3555555555556, +
522225, 1450.625, N
522540, 1451.5, N
522851, 1452.3638888888888, N
523162, 1453.2277777777779, N
523485, 1454.125, N
523782, 1454.95, N
524072, 1455.7555555555555, N
524353, 1456.536111111111, N
524631, 1457.3083333333334, N
524833, 1457.8694444444445, +
524920, 1458.111111111111, N
525198, 1458.8833333333334, N
525374, 1459.3722222222223, +
525465, 1459.625, N
525595, 1459.986111111111, ~
525648, 1460.1333333333334, +
525724, 1460.3444444444444, N
525980, 1461.0555555555557, N
526235, 1461.763888888889, N
526483, 1462.4527777777778, N
526634, 1462.8722222222223, ~
526730, 1463.138888888889, N
526985, 1463.8472222222222, N
527228, 1464.5222222222221, N
527481, 1465.225, N
527738, 1465.9388888888889, N
527996, 1466.6555555555556, N
528267, 1467.4083333333333, N
528533, 1468.1472222222221, N
528810, 1468.9166666666667, N
529090, 1469.6944444444443, N
529376, 1470.4888888888888, N
529642, 1471.2277777777779, N
529907, 1471.963888888889, N
530173, 1472.7027777777778, N
530428, 1473.411111111111, N
530690, 1474.138888888889, N
530946, 1474.85, N
531208, 1475.5777777777778, N
531481, 1476.3361111111112, N
531749, 1477.0805555555555, N
532015, 1477.8194444444443, N
532277, 1478.5472222222222, N
532534, 1479.2611111111112, N
532791, 1479.975, N
533060, 1480.7222222222222, N
533341, 1481.5027777777777, N
533622, 1482.2833333333333, N
533900, 1483.0555555555557, N
534167, 1483.7972222222222, N
534433, 1484.536111111111, N
534704, 1485.2888888888888, N
534969, 1486.025, N
535231, 1486.7527777777777, N
535488, 1487.4666666666667, N
535757, 1488.213888888889, N
536047, 1489.0194444444444, N
536346, 1489.85, N
536629, 1490.6361111111112, N
536914, 1491.4277777777777, N
537209, 1492.2472222222223, N
537494, 1493.0388888888888, N
537774, 1493.8166666666666, N
538056, 1494.6, N
538333, 1495.3694444444445, N
538615, 1496.1527777777778, N
538893, 1496.925, N
539170, 1497.6944444444443, N
539433, 1498.425, N
539706, 1499.1833333333334, N
539975, 1499.9305555555557, N
540091, 1500.2527777777777, |
540238, 1500.661111111111, N
540500, 1501.388888888889, N
540763, 1502.1194444444445, N
541033, 1502.8694444444445, N
541318, 1503.661111111111, N
541602, 1504.45, N
541884, 1505.2333333333333, N
542165, 1506.013888888889, N
542451, 1506.8083333333334, N
542725, 1507.5694444444443, N
542999, 1508.3305555555555, N
543270, 1509.0833333333333, N
543533, 1509.8138888888889, N
543803, 1510.5638888888889, N
544080, 1511.3333333333333, N
544377, 1512.1583333333333, N
544682, 1513.0055555555555, N
544990, 1513.861111111111, N
545287, 1514.6861111111111, N
545581, 1515.5027777777777, N
545855, 1516.263888888889, N
546124, 1517.0111111111112, N
546391, 1517.7527777777777, N
546663, 1518.5083333333334, N
546943, 1519.286111111111, N
547228, 1520.0777777777778, N
547528, 1520.911111111111, N
547840, 1521.7777777777778, N
548149, 1522.6361111111112, N
548438, 1523.4388888888889, N
548726, 1524.2388888888888, N
549011, 1525.0305555555556, N
549283, 1525.786111111111, N
549548, 1526.5222222222221, N
549807, 1527.2416666666666, N
550057, 1527.9361111111111, N
550305, 1528.625, N
550560, 1529.3333333333333, N
550838, 1530.1055555555556, N
551118, 1530.8833333333334, N
551393, 1531.6472222222221, N
551665, 1532.4027777777778, N
551941, 1533.1694444444445, N
552215, 1533.9305555555557, N
552494, 1534.7055555555555, N
552782, 1535.5055555555555, N
553066, 1536.2944444444445, N
553338, 1537.05, N
553610, 1537.8055555555557, N
553884, 1538.5666666666666, N
554157, 1539.325, N
554428, 1540.0777777777778, N
554697, 1540.825, N
554962, 1541.5611111111111, N
555232, 1542.3111111111111, N
555497, 1543.0472222222222, N
555769, 1543.8027777777777, N
556051, 1544.5861111111112, N
556332, 1545.3666666666666, N
556610, 1546.138888888889, N
556893, 1546.925, N
557184, 1547.7333333333333, N
557475, 1548.5416666666667, N
557764, 1549.3444444444444, N
558055, 1550.1527777777778, N
558345, 1550.9583333333333, N
558645, 1551.7916666666667, N
558946, 1552.6277777777777, N
559260, 1553.5, N
559560, 1554.3333333333333, N
559853, 1555.1472222222221, N
560139, 1555.9416666666666, N
560432, 1556.7555555555555, N
560735, 1557.5972222222222, N
561041, 1558.4472222222223, N
561355, 1559.3194444444443, N
561660, 1560.1666666666667, N
561956, 1560.9888888888888, N
562232, 1561.7555555555555, N
562411, 1562.2527777777777, +
562496, 1562.4888888888888, N
562749, 1563.1916666666666, N
562986, 1563.85, N
563220, 1564.5, N
563450, 1565.138888888889, N
563686, 1565.7944444444445, N
563927, 1566.463888888889, N
564173, 1567.1472222222221, N
564427, 1567.8527777777779, N
564680, 1568.5555555555557, N
564941, 1569.2805555555556, N
565204, 1570.0111111111112, N
565464, 1570.7333333333333, N
565713, 1571.425, N
565956, 1572.1, N
566190, 1572.75, N
566426, 1573.4055555555556, N
566663, 1574.0638888888889, N
566910, 1574.75, N
567080, 1575.2222222222222, +
567165, 1575.4583333333333, N
567419, 1576.1638888888888, N
567690, 1576.9166666666667, N
567968, 1577.6888888888889, N
568258, 1578.4944444444445, N
568545, 1579.2916666666667, N
568843, 1580.1194444444445, N
569142, 1580.95, N
569422, 1581.7277777777779, N
569704, 1582.5111111111112, N
569984, 1583.2888888888888, N
570256, 1584.0444444444445, N
570530, 1584.8055555555557, N
570794, 1585.5388888888888, N
571053, 1586.2583333333334, N
571304, 1586.9555555555555, N
571560, 1587.6666666666667, N
571815, 1588.375, N
572075, 1589.0972222222222, N
572348, 1589.8555555555556, N
572616, 1590.6, N
572893, 1591.3694444444445, N
573168, 1592.1333333333334, N
573459, 1592.9416666666666, N
573746, 1593.7388888888888, N
574028, 1594.5222222222221, N
574302, 1595.2833333333333, N
574576, 1596.0444444444445, N
574847, 1596.7972222222222, N
575111, 1597.5305555555556, N
575379, 1598.275, N
575639, 1598.9972222222223, N
575895, 1599.7083333333333, N
576155, 1600.4305555555557, N
576416, 1601.1555555555556, N
576680, 1601.888888888889, N
576953, 1602.6472222222221, N
577212, 1603.3666666666666, N
577472, 1604.088888888889, N
577730, 1604.8055555555557, N
577919, 1605.3305555555555, +
577984, 1605.5111111111112, N
578240, 1606.2222222222222, N
578492, 1606.9222222222222, N
578746, 1607.6277777777777, N
579002, 1608.338888888889, N
579258, 1609.05, N
579508, 1609.7444444444445, N
579760, 1610.4444444444443, N
580017, 1611.1583333333333, N
580276, 1611.8777777777777, N
580535, 1612.5972222222222, N
580792, 1613.3111111111111, N
581055, 1614.0416666666667, N
581315, 1614.763888888889, N
581571, 1615.475, N
581833, 1616.2027777777778, N
582088, 1616.911111111111, N
582339, 1617.6083333333333, N
582590, 1618.3055555555557, N
582834, 1618.9833333333333, N
583080, 1619.6666666666667, N
583331, 1620.3638888888888, N
583580, 1621.0555555555557, N
583826, 1621.7388888888888, N
584066, 1622.4055555555556, N
584309, 1623.0805555555555, N
584550, 1623.75, N
584793, 1624.425, N
585041, 1625.1138888888888, N
585292, 1625.8111111111111, N
585549, 1626.525, N
585799, 1627.2194444444444, N
586053, 1627.925, N
586307, 1628.6305555555555, N
586561, 1629.3361111111112, N
586807, 1630.0194444444444, N
587051, 1630.6972222222223, N
587290, 1631.361111111111, N
587522, 1632.0055555555555, N
587757, 1632.6583333333333, N
587997, 1633.325, N
588241, 1634.0027777777777, N
588488, 1634.6888888888889, N
588750, 1635.4166666666667, N
589004, 1636.1222222222223, N
589251, 1636.8083333333334, N
589494, 1637.4833333333333, N
589744, 1638.1777777777777, N
589991, 1638.8638888888888, N
590233, 1639.536111111111, N
590476, 1640.2111111111112, N
590718, 1640.8833333333334, N
590898, 1641.3833333333334, +
590967, 1641.575, N
591226, 1642.2944444444445, N
591479, 1642.9972222222223, N
591731, 1643.6972222222223, N
591986, 1644.4055555555556, N
592236, 1645.1, N
592491, 1645.8083333333334, N
592741, 1646.5027777777777, N
593004, 1647.2333333333333, N
593264, 1647.9555555555555, N
593524, 1648.6777777777777, N
593780, 1649.388888888889, N
594042, 1650.1166666666666, N
594310, 1650.861111111111, N
594588, 1651.6333333333334, N
594874, 1652.4277777777777, N
595066, 1652.9611111111112, +
595168, 1653.2444444444445, N
595448, 1654.0222222222221, N
595719, 1654.775, N
595887, 1655.2416666666666, +
595982, 1655.5055555555555, N
596242, 1656.2277777777779, N
596415, 1656.7083333333333, +
596500, 1656.9444444444443, N
596755, 1657.6527777777778, N
597009, 1658.3583333333333, N
597268, 1659.0777777777778, N
597531, 1659.8083333333334, N
597789, 1660.525, N
597970, 1661.0277777777778, +
598061, 1661.2805555555556, N
598338, 1662.05, N
598609, 1662.8027777777777, N
598877, 1663.5472222222222, N
599124, 1664.2333333333333, N
599287, 1664.6861111111111, +
599376, 1664.9333333333334, N
599620, 1665.611111111111, N
599861, 1666.2805555555556, N
600103, 1666.9527777777778, N
600332, 1667.588888888889, N
600568, 1668.2444444444445, N
600807, 1668.9083333333333, N
601040, 1669.5555555555557, N
601283, 1670.2305555555556, N
601525, 1670.9027777777778, N
601766, 1671.5722222222223, N
601999, 1672.2194444444444, N
602232, 1672.8666666666666, N
602467, 1673.5194444444444, N
602706, 1674.1833333333334, N
602950, 1674.861111111111, N
603198, 1675.55, N
603452, 1676.2555555555555, N
603724, 1677.0111111111112, N
604007, 1677.7972222222222, N
604300, 1678.611111111111, N
604604, 1679.4555555555555, N
604908, 1680.3, N
605199, 1681.1083333333333, N
605487, 1681.9083333333333, N
605772, 1682.7, N
606061, 1683.5027777777777, N
606342, 1684.2833333333333, N
606619, 1685.0527777777777, N
606894, 1685.8166666666666, N
607170, 1686.5833333333333, N
607448, 1687.3555555555556, N
607728, 1688.1333333333334, N
607992, 1688.8666666666666, N
608252, 1689.588888888889, N
608520, 1690.3333333333333, N
608781, 1691.0583333333334, N
609051, 1691.8083333333334, N
609332, 1692.588888888889, N
609611, 1693.3638888888888, N
609896, 1694.1555555555556, N
610165, 1694.9027777777778, N
610431, 1695.6416666666667, N
610689, 1696.3583333333333, N
610945, 1697.0694444444443, N
611186, 1697.7388888888888, N
611430, 1698.4166666666667, N
611580, 1698.8333333333333, +
611669, 1699.0805555555555, N
611912, 1699.7555555555555, N
612151, 1700.4194444444445, N
612399, 1701.1083333333333, N
612653, 1701.8138888888889, N
612904, 1702.5111111111112, N
613158, 1703.2166666666667, N
613318, 1703.661111111111, +
613407, 1703.9083333333333, N
613658, 1704.6055555555556, N
613905, 1705.2916666666667, N
614154, 1705.9833333333333, N
614400, 1706.6666666666667, N
614647, 1707.3527777777779, N
614886, 1708.0166666666667, N
615125, 1708.6805555555557, N
615365, 1709.3472222222222, N
615612, 1710.0333333333333, N
615855, 1710.7083333333333, N
616088, 1711.3555555555556, N
616332, 1712.0333333333333, N
616570, 1712.6944444444443, N
616813, 1713.3694444444445, N
617074, 1714.0944444444444, N
617338, 1714.8277777777778, N
617609, 1715.5805555555555, N
617887, 1716.3527777777779, N
618164, 1717.1222222222223, N
618436, 1717.8777777777777, N
618699, 1718.6083333333333, N
618962, 1719.338888888889, N
619218, 1720.05, N
619469, 1720.7472222222223, N
619719, 1721.4416666666666, N
619975, 1722.1527777777778, N
620228, 1722.8555555555556, N
620476, 1723.5444444444445, N
620732, 1724.2555555555555, N
620987, 1724.963888888889, N
621242, 1725.6722222222222, N
621502, 1726.3944444444444, N
621764, 1727.1222222222223, N
622037, 1727.8805555555555, N
622321, 1728.6694444444445, N
622592, 1729.4222222222222, N
622867, 1730.1861111111111, N
623136, 1730.9333333333334, N
623406, 1731.6833333333334, N
623672, 1732.4222222222222, N
623932, 1733.1444444444444, N
624188, 1733.8555555555556, N
624445, 1734.5694444444443, N
624697, 1735.2694444444444, N
624952, 1735.9777777777779, N
625203, 1736.675, N
625461, 1737.3916666666667, N
625726, 1738.1277777777777, N
625981, 1738.8361111111112, N
626237, 1739.5472222222222, N
626501, 1740.2805555555556, N
626765, 1741.013888888889, N
627028, 1741.7444444444445, N
627300, 1742.5, N
627571, 1743.2527777777777, N
627836, 1743.9888888888888, N
628107, 1744.7416666666666, N
628376, 1745.4888888888888, N
628640, 1746.2222222222222, N
628900, 1746.9444444444443, N
629149, 1747.6361111111112, N
629357, 1748.213888888889, V
629525, 1748.6805555555557, +
629606, 1748.9055555555556, N
629841, 1749.5583333333334, N
630081, 1750.225, N
630315, 1750.875, N
630559, 1751.5527777777777, N
630809, 1752.2472222222223, N
631055, 1752.9305555555557, N
631306, 1753.6277777777777, N
631560, 1754.3333333333333, N
631821, 1755.0583333333334, N
632111, 1755.8638888888888, N
632399, 1756.6638888888888, N
632701, 1757.5027777777777, N
632985, 1758.2916666666667, N
633266, 1759.0722222222223, N
633545, 1759.8472222222222, N
633829, 1760.6361111111112, N
634119, 1761.4416666666666, N
634392, 1762.2, N
634665, 1762.9583333333333, N
634937, 1763.713888888889, N
635217, 1764.4916666666666, N
635499, 1765.275, N
635670, 1765.75, +
635775, 1766.0416666666667, N
635967, 1766.575, +
636040, 1766.7777777777778, N
636301, 1767.5027777777777, N
636561, 1768.225, N
636815, 1768.9305555555557, N
637074, 1769.65, N
637344, 1770.4, N
637603, 1771.1194444444445, N
637868, 1771.8555555555556, N
638124, 1772.5666666666666, N
638385, 1773.2916666666667, N
638658, 1774.05, N
638926, 1774.7944444444445, N
639186, 1775.5166666666667, N
639441, 1776.225, N
639697, 1776.9361111111111, N
639952, 1777.6444444444444, N
640209, 1778.3583333333333, N
640459, 1779.0527777777777, N
640706, 1779.7388888888888, N
640950, 1780.4166666666667, N
641200, 1781.111111111111, N
641457, 1781.825, N
641730, 1782.5833333333333, N
642002, 1783.338888888889, N
642281, 1784.1138888888888, N
642556, 1784.8777777777777, N
642842, 1785.6722222222222, N
643142, 1786.5055555555555, N
643441, 1787.3361111111112, N
643734, 1788.15, N
644017, 1788.9361111111111, N
644294, 1789.7055555555555, N
644571, 1790.475, N
644843, 1791.2305555555556, N
645118, 1791.9944444444445, N
645382, 1792.7277777777779, N
645650, 1793.4722222222222, N
645918, 1794.2166666666667, N
646193, 1794.9805555555556, N
646477, 1795.7694444444444, N
646753, 1796.536111111111, N
647037, 1797.325, N
647314, 1798.0944444444444, N
647590, 1798.861111111111, N
647861, 1799.6138888888888, N
648124, 1800.3444444444444, N
648385, 1801.0694444444443, N
648554, 1801.5388888888888, +
648628, 1801.7444444444445, N
648871, 1802.4194444444445, N
649106, 1803.0722222222223, N
649338, 1803.7166666666667, N
649572, 1804.3666666666666, N
649807, 1805.0194444444444, N
