57, 0.15833333333333333, +
180, 0.5, R
527, 1.4638888888888888, R
847, 2.352777777777778, R
1166, 3.238888888888889, R
1512, 4.2, R
1833, 5.091666666666667, R
2083, 5.786111111111111, "
2460, 6.833333333333333, R
2789, 7.747222222222222, R
3088, 8.577777777777778, R
3420, 9.5, R
3754, 10.427777777777777, R
4058, 11.272222222222222, R
4386, 12.183333333333334, R
4720, 13.11111111111111, R
5035, 13.98611111111111, R
5378, 14.938888888888888, R
5740, 15.944444444444445, R
6060, 16.833333333333332, R
6415, 17.819444444444443, R
6799, 18.886111111111113, R
7122, 19.783333333333335, R
7480, 20.77777777777778, R
7827, 21.741666666666667, R
8138, 22.605555555555554, R
8478, 23.55, R
8818, 24.494444444444444, R
9137, 25.380555555555556, R
9497, 26.380555555555556, R
9853, 27.369444444444444, R
10182, 28.283333333333335, R
10538, 29.272222222222222, R
10893, 30.258333333333333, R
11224, 31.177777777777777, R
11582, 32.172222222222224, R
11917, 33.102777777777774, R
12236, 33.98888888888889, R
12589, 34.96944444444444, R
12941, 35.94722222222222, R
13261, 36.83611111111111, R
13618, 37.827777777777776, R
13949, 38.74722222222222, R
14283, 39.675, R
14626, 40.62777777777778, R
14968, 41.577777777777776, R
15288, 42.46666666666667, R
15638, 43.43888888888889, R
15977, 44.38055555555555, R
16305, 45.291666666666664, R
16651, 46.25277777777778, R
17018, 47.272222222222226, R
17353, 48.202777777777776, R
17707, 49.18611111111111, R
18049, 50.13611111111111, R
18371, 51.03055555555556, R
18715, 51.986111111111114, R
19055, 52.93055555555556, R
19366, 53.794444444444444, R
19721, 54.78055555555556, R
20054, 55.705555555555556, R
20374, 56.59444444444444, R
20730, 57.583333333333336, R
21068, 58.522222222222226, R
21383, 59.397222222222226, R
21731, 60.36388888888889, R
22060, 61.27777777777778, R
22378, 62.16111111111111, R
22726, 63.12777777777778, R
23074, 64.09444444444445, R
23396, 64.9888888888889, R
23747, 65.96388888888889, R
24084, 66.9, R
24405, 67.79166666666667, R
24769, 68.80277777777778, R
25120, 69.77777777777777, R
25446, 70.68333333333334, R
25810, 71.69444444444444, R
26157, 72.65833333333333, R
26492, 73.58888888888889, R
26841, 74.55833333333334, R
27195, 75.54166666666667, R
27546, 76.51666666666667, R
27874, 77.42777777777778, R
28205, 78.34722222222223, R
28557, 79.325, R
28888, 80.24444444444444, R
29234, 81.20555555555555, R
29593, 82.20277777777778, R
29926, 83.12777777777778, R
30280, 84.11111111111111, R
30637, 85.10277777777777, R
30975, 86.04166666666667, R
31325, 87.01388888888889, R
31692, 88.03333333333333, R
32019, 88.94166666666666, R
32360, 89.88888888888889, R
32704, 90.84444444444445, R
33027, 91.74166666666666, R
33357, 92.65833333333333, R
33712, 93.64444444444445, R
34026, 94.51666666666667, R
34275, 95.20833333333333, "
34652, 96.25555555555556, N
34976, 97.15555555555555, R
35142, 97.61666666666666, +
35220, 97.83333333333333, "
35587, 98.85277777777777, N
35853, 99.59166666666667, "
36208, 100.57777777777778, N
36474, 101.31666666666666, "
36840, 102.33333333333333, N
37090, 103.02777777777777, "
37444, 104.0111111111111, N
37713, 104.75833333333334, "
38056, 105.71111111111111, N
38298, 106.38333333333334, "
38654, 107.37222222222222, N
38919, 108.10833333333333, "
39264, 109.06666666666666, N
39509, 109.74722222222222, "
39863, 110.73055555555555, N
40096, 111.37777777777778, "
40458, 112.38333333333334, N
40707, 113.075, "
41059, 114.05277777777778, N
41291, 114.69722222222222, "
41648, 115.68888888888888, N
41892, 116.36666666666666, "
42221, 117.28055555555555, R
42444, 117.9, "
42788, 118.85555555555555, R
43024, 119.5111111111111, "
43357, 120.43611111111112, R
43597, 121.10277777777777, "
43937, 122.04722222222222, R
44177, 122.71388888888889, "
44526, 123.68333333333334, R
44767, 124.35277777777777, "
45113, 125.31388888888888, R
45342, 125.95, "
45692, 126.92222222222222, R
45926, 127.57222222222222, "
46256, 128.48888888888888, R
46490, 129.13888888888889, "
46817, 130.04722222222222, R
47050, 130.69444444444446, "
47398, 131.6611111111111, R
47658, 132.38333333333333, "
48009, 133.35833333333332, R
48249, 134.025, "
48598, 134.99444444444444, R
48834, 135.65, "
49184, 136.62222222222223, R
49431, 137.30833333333334, "
49782, 138.28333333333333, R
50031, 138.975, "
50372, 139.92222222222222, R
50616, 140.6, "
50970, 141.58333333333334, R
51207, 142.24166666666667, "
51559, 143.21944444444443, R
51802, 143.89444444444445, "
52143, 144.84166666666667, R
52315, 145.31944444444446, x
52598, 146.10555555555555, A
52995, 147.20833333333334, R
53176, 147.7111111111111, x
53239, 147.88611111111112, V
53392, 148.3111111111111, V
53625, 148.95833333333334, +
53780, 149.38888888888889, R
54109, 150.30277777777778, R
54441, 151.225, R
54771, 152.14166666666668, R
55090, 153.02777777777777, R
55426, 153.9611111111111, R
55789, 154.96944444444443, R
56118, 155.88333333333333, R
56479, 156.88611111111112, R
56844, 157.9, R
57192, 158.86666666666667, R
57568, 159.9111111111111, R
57932, 160.92222222222222, R
58262, 161.8388888888889, R
58604, 162.7888888888889, R
58936, 163.7111111111111, R
59265, 164.625, R
59606, 165.57222222222222, R
59959, 166.55277777777778, R
60294, 167.48333333333332, R
60657, 168.49166666666667, R
61029, 169.525, R
61370, 170.47222222222223, R
61748, 171.5222222222222, R
62120, 172.55555555555554, R
62478, 173.55, R
62854, 174.59444444444443, R
63230, 175.63888888888889, R
63573, 176.59166666666667, R
63939, 177.60833333333332, R
64281, 178.55833333333334, R
64621, 179.50277777777777, R
65004, 180.56666666666666, R
65351, 181.53055555555557, R
65701, 182.50277777777777, R
66056, 183.48888888888888, R
66394, 184.42777777777778, R
66731, 185.36388888888888, R
67097, 186.38055555555556, R
67453, 187.36944444444444, R
67825, 188.40277777777777, R
68199, 189.44166666666666, R
68548, 190.4111111111111, R
68893, 191.36944444444444, R
69244, 192.34444444444443, R
69585, 193.29166666666666, R
69934, 194.26111111111112, R
70283, 195.23055555555555, R
70634, 196.20555555555555, R
70984, 197.17777777777778, R
71334, 198.15, R
71695, 199.15277777777777, R
72036, 200.1, R
72387, 201.075, R
72744, 202.06666666666666, R
73083, 203.00833333333333, R
73433, 203.98055555555555, R
73793, 204.98055555555555, R
74123, 205.8972222222222, R
74487, 206.90833333333333, R
74837, 207.88055555555556, R
75177, 208.825, R
75532, 209.8111111111111, R
75898, 210.82777777777778, R
76233, 211.75833333333333, R
76592, 212.75555555555556, R
76955, 213.76388888888889, R
77294, 214.70555555555555, R
77653, 215.70277777777778, R
78011, 216.69722222222222, R
78337, 217.6027777777778, R
78680, 218.55555555555554, R
79028, 219.5222222222222, R
79345, 220.40277777777777, R
79685, 221.34722222222223, R
80032, 222.3111111111111, R
80342, 223.17222222222222, R
80671, 224.0861111111111, R
81026, 225.07222222222222, R
81344, 225.95555555555555, R
81676, 226.87777777777777, R
82037, 227.88055555555556, R
82371, 228.80833333333334, R
82690, 229.69444444444446, R
83045, 230.68055555555554, R
83376, 231.6, R
83692, 232.4777777777778, R
84042, 233.45, R
84376, 234.37777777777777, R
84685, 235.23611111111111, R
85036, 236.2111111111111, R
85367, 237.13055555555556, R
85678, 237.99444444444444, R
86009, 238.9138888888889, R
86336, 239.82222222222222, R
86644, 240.67777777777778, R
86978, 241.60555555555555, R
87324, 242.56666666666666, R
87649, 243.46944444444443, R
87991, 244.41944444444445, R
88363, 245.45277777777778, R
88714, 246.42777777777778, R
89054, 247.37222222222223, R
89411, 248.36388888888888, R
89752, 249.3111111111111, R
90083, 250.23055555555555, R
90426, 251.18333333333334, R
90758, 252.10555555555555, R
91082, 253.00555555555556, R
91423, 253.95277777777778, R
91786, 254.9611111111111, R
92113, 255.86944444444444, R
92457, 256.825, R
92816, 257.8222222222222, R
93168, 258.8, R
93508, 259.74444444444447, R
93868, 260.74444444444447, R
94192, 261.64444444444445, R
94522, 262.56111111111113, R
94867, 263.51944444444445, R
95208, 264.46666666666664, R
95527, 265.35277777777776, R
95886, 266.35, R
96207, 267.2416666666667, R
96540, 268.1666666666667, R
96886, 269.1277777777778, R
97233, 270.09166666666664, R
97557, 270.9916666666667, R
97917, 271.9916666666667, R
98261, 272.9472222222222, R
98578, 273.8277777777778, R
98923, 274.7861111111111, R
99269, 275.7472222222222, R
99597, 276.65833333333336, R
99931, 277.5861111111111, R
100285, 278.56944444444446, R
100604, 279.4555555555556, R
100945, 280.40277777777777, R
101283, 281.34166666666664, R
101596, 282.2111111111111, R
101956, 283.2111111111111, R
102308, 284.18888888888887, R
102631, 285.0861111111111, R
102985, 286.06944444444446, R
103328, 287.02222222222224, R
103649, 287.9138888888889, R
103997, 288.88055555555553, R
104330, 289.80555555555554, R
104651, 290.6972222222222, R
105012, 291.7, R
105354, 292.65, R
105683, 293.56388888888887, R
106043, 294.56388888888887, R
106389, 295.525, R
106720, 296.44444444444446, R
107085, 297.4583333333333, R
107428, 298.4111111111111, R
107764, 299.34444444444443, R
108120, 300.3333333333333, R
108462, 301.28333333333336, R
108790, 302.19444444444446, R
109140, 303.1666666666667, R
109475, 304.09722222222223, R
109808, 305.02222222222224, R
110152, 305.97777777777776, R
110490, 306.9166666666667, R
110822, 307.8388888888889, R
111172, 308.81111111111113, R
111531, 309.80833333333334, R
111895, 310.81944444444446, R
112220, 311.72222222222223, R
112568, 312.68888888888887, R
112919, 313.6638888888889, R
113248, 314.5777777777778, R
113595, 315.5416666666667, R
113947, 316.51944444444445, R
114266, 317.40555555555557, R
114617, 318.38055555555553, R
114964, 319.34444444444443, R
115286, 320.2388888888889, R
115619, 321.1638888888889, R
115962, 322.1166666666667, R
116268, 322.96666666666664, R
116604, 323.9, R
116935, 324.81944444444446, R
117253, 325.7027777777778, R
117597, 326.65833333333336, R
117967, 327.68611111111113, R
118277, 328.5472222222222, R
118625, 329.5138888888889, R
118956, 330.43333333333334, R
119218, 331.1611111111111, "
119586, 332.18333333333334, N
119920, 333.1111111111111, R
120082, 333.56111111111113, +
120168, 333.8, "
120528, 334.8, N
120788, 335.52222222222224, "
121158, 336.55, N
121420, 337.27777777777777, "
121792, 338.31111111111113, N
122041, 339.0027777777778, "
122399, 339.9972222222222, N
122660, 340.72222222222223, "
123028, 341.74444444444447, N
123280, 342.44444444444446, "
123617, 343.38055555555553, R
123879, 344.10833333333335, "
124212, 345.03333333333336, R
124458, 345.71666666666664, "
124796, 346.65555555555557, R
125038, 347.3277777777778, "
125390, 348.30555555555554, R
125638, 348.99444444444447, "
125983, 349.9527777777778, R
126223, 350.61944444444447, "
126571, 351.5861111111111, R
126811, 352.2527777777778, "
127169, 353.2472222222222, R
127410, 353.9166666666667, "
127760, 354.8888888888889, R
128007, 355.575, "
128357, 356.5472222222222, R
128597, 357.2138888888889, "
128937, 358.15833333333336, R
129192, 358.8666666666667, "
129534, 359.81666666666666, R
129794, 360.5388888888889, "
130142, 361.50555555555553, R
130393, 362.2027777777778, "
130741, 363.1694444444444, R
130990, 363.8611111111111, "
131333, 364.81388888888887, R
131559, 365.44166666666666, "
131917, 366.43611111111113, R
132166, 367.1277777777778, "
132504, 368.06666666666666, R
132737, 368.7138888888889, "
133098, 369.71666666666664, R
133348, 370.4111111111111, "
133710, 371.4166666666667, N
133965, 372.125, "
134328, 373.1333333333333, N
134588, 373.85555555555555, "
134960, 374.8888888888889, N
135227, 375.63055555555553, "
135588, 376.6333333333333, N
135844, 377.34444444444443, "
136196, 378.3222222222222, N
136445, 379.0138888888889, "
136789, 379.96944444444443, N
137036, 380.65555555555557, "
137380, 381.6111111111111, R
137608, 382.24444444444447, "
137958, 383.21666666666664, R
138209, 383.9138888888889, "
138546, 384.85, R
138788, 385.52222222222224, "
139135, 386.4861111111111, R
139384, 387.1777777777778, "
139726, 388.1277777777778, R
139981, 388.8361111111111, "
140324, 389.7888888888889, R
140564, 390.4555555555556, "
140911, 391.4194444444444, R
141164, 392.1222222222222, "
141497, 393.0472222222222, R
141743, 393.73055555555555, "
142076, 394.65555555555557, R
142312, 395.31111111111113, "
142650, 396.25, R
142879, 396.8861111111111, "
143212, 397.81111111111113, R
143442, 398.45, "
143785, 399.40277777777777, R
144033, 400.09166666666664, "
144377, 401.0472222222222, R
144624, 401.73333333333335, "
144962, 402.6722222222222, R
145216, 403.3777777777778, "
145553, 404.31388888888887, R
145798, 404.99444444444447, "
146154, 405.98333333333335, N
146390, 406.6388888888889, "
146739, 407.60833333333335, N
146971, 408.2527777777778, "
147328, 409.24444444444447, N
147577, 409.93611111111113, "
147947, 410.9638888888889, N
148192, 411.64444444444445, "
148541, 412.6138888888889, N
148799, 413.3305555555556, "
149156, 414.3222222222222, N
149398, 414.99444444444447, "
149750, 415.97222222222223, N
149994, 416.65, "
150328, 417.5777777777778, N
150578, 418.27222222222224, "
150922, 419.22777777777776, N
151166, 419.90555555555557, "
151508, 420.85555555555555, N
151768, 421.5777777777778, "
152128, 422.5777777777778, N
152376, 423.26666666666665, "
152722, 424.22777777777776, N
152976, 424.93333333333334, "
153335, 425.93055555555554, N
153584, 426.6222222222222, "
153947, 427.63055555555553, N
154182, 428.28333333333336, "
154535, 429.2638888888889, N
154785, 429.9583333333333, "
155139, 430.94166666666666, N
155375, 431.59722222222223, "
155715, 432.5416666666667, N
155957, 433.2138888888889, "
156290, 434.1388888888889, N
156527, 434.7972222222222, "
156869, 435.7472222222222, N
157120, 436.44444444444446, "
157455, 437.375, N
157704, 438.06666666666666, "
158055, 439.0416666666667, N
158288, 439.68888888888887, "
158630, 440.6388888888889, N
158868, 441.3, "
159212, 442.25555555555553, N
159436, 442.8777777777778, "
159779, 443.8305555555556, N
160022, 444.50555555555553, "
160365, 445.4583333333333, N
160612, 446.14444444444445, "
160959, 447.10833333333335, N
161198, 447.77222222222224, "
161534, 448.7055555555556, N
161788, 449.4111111111111, "
162132, 450.3666666666667, N
162360, 451.0, "
162704, 451.9555555555556, N
162953, 452.64722222222224, "
163301, 453.6138888888889, N
163537, 454.26944444444445, "
163891, 455.2527777777778, N
164141, 455.9472222222222, "
164490, 456.9166666666667, N
164737, 457.60277777777776, "
165111, 458.64166666666665, N
165355, 459.31944444444446, "
165723, 460.34166666666664, N
165977, 461.0472222222222, "
166321, 462.0027777777778, N
166582, 462.72777777777776, "
166941, 463.725, N
167203, 464.4527777777778, "
167553, 465.425, N
167797, 466.10277777777776, "
168169, 467.1361111111111, N
168421, 467.8361111111111, "
168782, 468.8388888888889, N
169055, 469.59722222222223, "
169424, 470.6222222222222, N
169676, 471.3222222222222, "
170054, 472.3722222222222, N
170313, 473.09166666666664, "
170678, 474.10555555555555, N
170951, 474.8638888888889, "
171323, 475.89722222222224, N
171567, 476.575, "
171936, 477.6, N
172183, 478.2861111111111, "
172530, 479.25, N
172761, 479.89166666666665, "
173129, 480.9138888888889, N
173372, 481.5888888888889, "
173722, 482.56111111111113, N
173981, 483.28055555555557, "
174329, 484.2472222222222, N
174577, 484.93611111111113, "
174937, 485.93611111111113, N
175199, 486.6638888888889, "
175543, 487.61944444444447, N
175794, 488.31666666666666, "
176150, 489.30555555555554, N
176394, 489.98333333333335, "
176737, 490.93611111111113, N
176971, 491.5861111111111, "
177321, 492.55833333333334, N
177555, 493.2083333333333, "
177918, 494.21666666666664, N
178161, 494.89166666666665, "
178506, 495.85, N
178749, 496.525, "
179114, 497.5388888888889, N
179361, 498.225, "
179708, 499.18888888888887, N
179950, 499.8611111111111, "
180291, 500.80833333333334, N
180548, 501.52222222222224, "
180887, 502.4638888888889, N
181133, 503.14722222222224, "
181481, 504.1138888888889, N
181748, 504.85555555555555, "
182112, 505.8666666666667, N
182356, 506.5444444444444, "
182720, 507.55555555555554, N
182981, 508.28055555555557, "
183344, 509.2888888888889, N
183583, 509.9527777777778, "
183946, 510.9611111111111, N
184201, 511.6694444444444, "
184557, 512.6583333333333, N
184806, 513.35, "
185166, 514.35, N
185416, 515.0444444444445, "
185792, 516.0888888888888, N
186033, 516.7583333333333, "
186385, 517.7361111111111, N
186643, 518.4527777777778, "
187010, 519.4722222222222, N
187265, 520.1805555555555, "
187630, 521.1944444444445, N
187889, 521.9138888888889, "
188246, 522.9055555555556, N
188492, 523.5888888888888, "
188855, 524.5972222222222, N
189102, 525.2833333333333, "
189437, 526.2138888888888, N
189679, 526.8861111111111, "
190038, 527.8833333333333, N
190278, 528.55, "
190637, 529.5472222222222, N
190881, 530.225, "
191243, 531.2305555555556, N
191494, 531.9277777777778, "
191860, 532.9444444444445, N
192097, 533.6027777777778, "
192440, 534.5555555555555, N
192688, 535.2444444444444, "
193043, 536.2305555555556, N
193283, 536.8972222222222, "
193620, 537.8333333333334, N
193874, 538.5388888888889, "
194227, 539.5194444444444, N
194455, 540.1527777777778, "
194800, 541.1111111111111, N
195036, 541.7666666666667, "
195385, 542.7361111111111, N
195608, 543.3555555555556, "
195959, 544.3305555555555, N
196204, 545.0111111111111, "
196542, 545.95, N
196777, 546.6027777777778, "
197141, 547.6138888888889, N
197386, 548.2944444444445, "
197748, 549.3, N
198001, 550.0027777777777, "
198348, 550.9666666666667, N
198586, 551.6277777777777, "
198938, 552.6055555555556, N
199191, 553.3083333333333, "
199529, 554.2472222222223, N
199774, 554.9277777777778, "
200117, 555.8805555555556, N
200346, 556.5166666666667, "
200688, 557.4666666666667, N
200919, 558.1083333333333, "
201263, 559.0638888888889, N
201510, 559.75, "
201877, 560.7694444444444, N
202121, 561.4472222222222, "
202337, 562.0472222222222, +
202466, 562.4055555555556, N
202778, 563.2722222222222, R
203082, 564.1166666666667, R
203401, 565.0027777777777, R
203759, 565.9972222222223, R
204097, 566.9361111111111, R
204451, 567.9194444444445, R
204824, 568.9555555555555, R
205179, 569.9416666666667, R
205515, 570.875, R
205886, 571.9055555555556, R
206224, 572.8444444444444, R
206546, 573.7388888888889, R
206875, 574.6527777777778, R
207202, 575.5611111111111, R
207510, 576.4166666666666, R
207849, 577.3583333333333, R
208172, 578.2555555555556, R
208473, 579.0916666666667, R
208803, 580.0083333333333, R
209149, 580.9694444444444, R
209462, 581.8388888888888, R
209802, 582.7833333333333, R
210145, 583.7361111111111, R
210459, 584.6083333333333, R
210799, 585.5527777777778, R
211144, 586.5111111111111, R
211462, 587.3944444444444, R
211795, 588.3194444444445, R
212146, 589.2944444444445, R
212489, 590.2472222222223, R
212820, 591.1666666666666, R
213206, 592.2388888888889, R
213569, 593.2472222222223, R
213922, 594.2277777777778, R
214290, 595.25, R
214653, 596.2583333333333, R
215020, 597.2777777777778, R
215397, 598.325, R
215762, 599.3388888888888, R
216106, 600.2944444444445, R
216446, 601.2388888888889, R
216793, 602.2027777777778, R
217130, 603.1388888888889, R
217489, 604.1361111111111, R
217859, 605.1638888888889, R
218203, 606.1194444444444, R
218573, 607.1472222222222, R
218946, 608.1833333333333, R
219307, 609.1861111111111, R
219670, 610.1944444444445, R
220031, 611.1972222222222, R
220365, 612.125, R
220719, 613.1083333333333, R
221073, 614.0916666666667, R
221401, 615.0027777777777, R
221755, 615.9861111111111, R
222104, 616.9555555555555, R
222426, 617.85, R
222780, 618.8333333333334, R
223139, 619.8305555555555, R
223462, 620.7277777777778, R
223820, 621.7222222222222, R
224158, 622.6611111111112, R
224477, 623.5472222222222, R
224822, 624.5055555555556, R
225157, 625.4361111111111, R
225471, 626.3083333333333, R
225825, 627.2916666666666, R
226174, 628.2611111111111, R
226503, 629.175, R
226836, 630.1, R
227184, 631.0666666666667, R
227520, 632.0, R
227846, 632.9055555555556, R
228180, 633.8333333333334, R
228497, 634.7138888888888, R
228803, 635.5638888888889, R
229130, 636.4722222222222, R
229461, 637.3916666666667, R
229793, 638.3138888888889, R
230115, 639.2083333333334, R
230482, 640.2277777777778, R
230833, 641.2027777777778, R
231164, 642.1222222222223, R
231543, 643.175, R
231928, 644.2444444444444, R
232261, 645.1694444444445, R
232614, 646.15, R
232972, 647.1444444444444, R
233298, 648.05, R
233650, 649.0277777777778, R
234011, 650.0305555555556, R
234330, 650.9166666666666, R
234676, 651.8777777777777, R
235029, 652.8583333333333, R
235345, 653.7361111111111, R
235690, 654.6944444444445, R
236036, 655.6555555555556, R
236343, 656.5083333333333, R
236678, 657.4388888888889, R
237027, 658.4083333333333, R
237349, 659.3027777777778, R
237669, 660.1916666666667, R
237997, 661.1027777777778, R
238316, 661.9888888888889, R
238629, 662.8583333333333, R
238964, 663.7888888888889, R
239298, 664.7166666666667, R
239631, 665.6416666666667, R
239955, 666.5416666666666, R
240322, 667.5611111111111, R
240676, 668.5444444444445, R
241005, 669.4583333333334, R
241358, 670.4388888888889, R
241717, 671.4361111111111, R
242047, 672.3527777777778, R
242398, 673.3277777777778, R
242753, 674.3138888888889, R
243086, 675.2388888888889, R
243446, 676.2388888888889, R
243804, 677.2333333333333, R
244128, 678.1333333333333, R
244475, 679.0972222222222, R
244816, 680.0444444444445, R
245137, 680.9361111111111, R
245461, 681.8361111111111, R
245809, 682.8027777777778, R
246139, 683.7194444444444, R
246460, 684.6111111111111, R
246806, 685.5722222222222, R
247152, 686.5333333333333, R
247468, 687.4111111111112, R
247818, 688.3833333333333, R
248155, 689.3194444444445, R
248479, 690.2194444444444, R
248814, 691.15, R
249156, 692.1, R
249469, 692.9694444444444, R
249810, 693.9166666666666, R
250148, 694.8555555555556, R
250470, 695.75, R
250807, 696.6861111111111, R
251159, 697.6638888888889, R
251475, 698.5416666666666, R
251802, 699.45, R
252139, 700.3861111111111, R
252483, 701.3416666666667, R
252805, 702.2361111111111, R
253168, 703.2444444444444, R
253518, 704.2166666666667, R
253854, 705.15, R
254192, 706.0888888888888, R
254542, 707.0611111111111, R
254873, 707.9805555555556, R
255216, 708.9333333333333, R
255557, 709.8805555555556, R
255887, 710.7972222222222, R
256228, 711.7444444444444, R
256558, 712.6611111111112, R
256822, 713.3944444444444, "
257202, 714.45, N
257519, 715.3305555555555, R
257838, 716.2166666666667, R
258168, 717.1333333333333, R
258506, 718.0722222222222, R
258833, 718.9805555555556, R
259193, 719.9805555555556, R
259550, 720.9722222222222, R
259891, 721.9194444444445, R
260237, 722.8805555555556, R
260591, 723.8638888888889, R
260935, 724.8194444444445, R
261274, 725.7611111111111, R
261625, 726.7361111111111, R
261962, 727.6722222222222, R
262284, 728.5666666666667, R
262627, 729.5194444444444, R
262958, 730.4388888888889, R
263271, 731.3083333333333, R
263624, 732.2888888888889, R
263965, 733.2361111111111, R
264273, 734.0916666666667, R
264619, 735.0527777777778, R
264972, 736.0333333333333, R
265306, 736.9611111111111, R
265649, 737.9138888888889, R
266000, 738.8888888888889, R
266341, 739.8361111111111, R
266682, 740.7833333333333, R
267047, 741.7972222222222, R
267402, 742.7833333333333, R
267749, 743.7472222222223, R
268107, 744.7416666666667, R
268450, 745.6944444444445, R
268788, 746.6333333333333, R
269130, 747.5833333333334, R
269465, 748.5138888888889, R
269783, 749.3972222222222, R
270112, 750.3111111111111, R
270439, 751.2194444444444, R
270755, 752.0972222222222, R
271083, 753.0083333333333, R
271405, 753.9027777777778, R
271722, 754.7833333333333, R
272051, 755.6972222222222, R
272389, 756.6361111111111, R
272711, 757.5305555555556, R
273082, 758.5611111111111, R
273436, 759.5444444444445, R
273783, 760.5083333333333, R
274132, 761.4777777777778, R
274483, 762.4527777777778, R
274814, 763.3722222222223, R
275162, 764.3388888888888, R
275485, 765.2361111111111, R
275803, 766.1194444444444, R
276129, 767.025, R
276465, 767.9583333333334, R
276784, 768.8444444444444, R
277148, 769.8555555555556, R
277511, 770.8638888888889, R
277864, 771.8444444444444, R
278222, 772.8388888888888, R
278591, 773.8638888888889, R
278951, 774.8638888888889, R
279281, 775.7805555555556, R
279629, 776.7472222222223, R
279988, 777.7444444444444, R
280320, 778.6666666666666, R
280663, 779.6194444444444, R
281011, 780.5861111111111, R
281342, 781.5055555555556, R
281679, 782.4416666666667, R
282014, 783.3722222222223, R
282346, 784.2944444444445, R
282673, 785.2027777777778, R
283035, 786.2083333333334, R
283387, 787.1861111111111, R
283729, 788.1361111111111, R
284078, 789.1055555555556, R
284427, 790.075, R
284761, 791.0027777777777, R
285111, 791.975, R
285453, 792.925, R
285784, 793.8444444444444, R
286108, 794.7444444444444, R
286447, 795.6861111111111, R
286771, 796.5861111111111, R
287105, 797.5138888888889, R
287442, 798.45, R
287766, 799.35, R
287941, 799.8361111111111, +
288016, 800.0444444444445, "
288381, 801.0583333333333, N
288648, 801.8, "
288998, 802.7722222222222, N
289257, 803.4916666666667, "
289634, 804.5388888888889, N
289892, 805.2555555555556, "
290248, 806.2444444444444, N
290514, 806.9833333333333, "
290882, 808.0055555555556, N
291130, 808.6944444444445, "
291486, 809.6833333333333, N
291738, 810.3833333333333, "
292078, 811.3277777777778, R
292311, 811.975, "
292654, 812.9277777777778, R
292893, 813.5916666666667, "
293228, 814.5222222222222, R
293481, 815.225, "
293815, 816.1527777777778, R
294041, 816.7805555555556, "
294384, 817.7333333333333, R
294640, 818.4444444444445, "
294987, 819.4083333333333, R
295223, 820.0638888888889, "
295575, 821.0416666666666, R
295819, 821.7194444444444, "
296157, 822.6583333333333, R
296395, 823.3194444444445, "
296740, 824.2777777777778, R
296978, 824.9388888888889, "
297320, 825.8888888888889, R
297575, 826.5972222222222, "
297915, 827.5416666666666, R
298160, 828.2222222222222, "
298517, 829.2138888888888, R
298773, 829.925, "
299105, 830.8472222222222, R
299344, 831.5111111111111, "
299695, 832.4861111111111, R
299924, 833.1222222222223, "
300268, 834.0777777777778, R
300499, 834.7194444444444, "
300839, 835.6638888888889, R
301079, 836.3305555555555, "
301417, 837.2694444444444, R
301656, 837.9333333333333, "
301988, 838.8555555555556, R
302237, 839.5472222222222, "
302591, 840.5305555555556, R
302837, 841.2138888888888, "
303179, 842.1638888888889, R
303447, 842.9083333333333, "
303816, 843.9333333333333, N
304066, 844.6277777777777, "
304426, 845.6277777777777, N
304684, 846.3444444444444, "
305036, 847.3222222222222, N
305281, 848.0027777777777, "
305636, 848.9888888888889, N
305872, 849.6444444444444, "
306215, 850.5972222222222, N
306462, 851.2833333333333, "
306815, 852.2638888888889, N
307055, 852.9305555555555, "
307395, 853.875, N
307646, 854.5722222222222, "
307984, 855.5111111111111, N
308227, 856.1861111111111, "
308569, 857.1361111111111, N
308825, 857.8472222222222, "
309174, 858.8166666666667, N
309438, 859.55, "
309796, 860.5444444444445, N
310033, 861.2027777777778, "
310384, 862.1777777777778, N
310638, 862.8833333333333, "
311002, 863.8944444444444, N
311248, 864.5777777777778, "
311612, 865.5888888888888, N
311861, 866.2805555555556, "
312229, 867.3027777777778, N
312471, 867.975, "
312841, 869.0027777777777, N
313094, 869.7055555555555, "
313460, 870.7222222222222, N
313721, 871.4472222222222, "
314067, 872.4083333333333, N
314304, 873.0666666666667, "
314666, 874.0722222222222, N
314900, 874.7222222222222, "
315238, 875.6611111111112, N
315499, 876.3861111111111, "
315835, 877.3194444444445, N
316072, 877.9777777777778, "
316429, 878.9694444444444, N
316685, 879.6805555555555, "
317033, 880.6472222222222, N
317276, 881.3222222222222, "
317640, 882.3333333333334, N
317892, 883.0333333333333, "
318252, 884.0333333333333, N
318506, 884.7388888888889, "
318864, 885.7333333333333, N
319093, 886.3694444444444, "
319461, 887.3916666666667, N
319711, 888.0861111111111, "
320054, 889.0388888888889, N
320302, 889.7277777777778, "
320667, 890.7416666666667, N
320922, 891.45, "
321285, 892.4583333333334, N
321539, 893.1638888888889, "
321884, 894.1222222222223, N
322131, 894.8083333333333, "
322490, 895.8055555555555, N
322745, 896.5138888888889, "
323087, 897.4638888888888, N
323346, 898.1833333333333, "
323713, 899.2027777777778, N
323958, 899.8833333333333, "
324327, 900.9083333333333, N
324585, 901.625, "
324937, 902.6027777777778, N
325198, 903.3277777777778, "
325556, 904.3222222222222, N
325797, 904.9916666666667, "
326143, 905.9527777777778, N
326392, 906.6444444444444, "
326746, 907.6277777777777, N
326995, 908.3194444444445, "
327341, 909.2805555555556, N
327593, 909.9805555555556, "
327938, 910.9388888888889, N
328189, 911.6361111111111, "
328541, 912.6138888888889, N
328779, 913.275, "
329132, 914.2555555555556, N
329397, 914.9916666666667, "
329744, 915.9555555555555, N
329986, 916.6277777777777, "
330341, 917.6138888888889, N
330589, 918.3027777777778, "
330942, 919.2833333333333, N
331197, 919.9916666666667, "
331555, 920.9861111111111, N
331807, 921.6861111111111, "
332154, 922.65, N
332402, 923.3388888888888, "
332749, 924.3027777777778, N
332995, 924.9861111111111, "
333351, 925.975, N
333589, 926.6361111111111, "
333932, 927.5888888888888, N
334179, 928.275, "
334532, 929.2555555555556, N
334774, 929.9277777777778, "
335116, 930.8777777777777, N
335375, 931.5972222222222, "
335737, 932.6027777777778, N
335974, 933.2611111111111, "
336336, 934.2666666666667, N
336593, 934.9805555555556, "
336943, 935.9527777777778, N
337201, 936.6694444444445, "
337571, 937.6972222222222, N
337816, 938.3777777777777, "
338172, 939.3666666666667, N
338430, 940.0833333333334, "
338797, 941.1027777777778, N
339033, 941.7583333333333, "
339404, 942.7888888888889, N
339662, 943.5055555555556, "
340015, 944.4861111111111, N
340262, 945.1722222222222, "
340614, 946.15, N
340861, 946.8361111111111, "
341196, 947.7666666666667, N
341449, 948.4694444444444, "
341787, 949.4083333333333, N
342040, 950.1111111111111, "
342388, 951.0777777777778, N
342644, 951.7888888888889, "
342991, 952.7527777777777, N
343254, 953.4833333333333, "
343619, 954.4972222222223, N
343864, 955.1777777777778, "
344215, 956.1527777777778, N
344475, 956.875, "
344830, 957.8611111111111, N
345068, 958.5222222222222, "
345431, 959.5305555555556, N
345675, 960.2083333333334, "
346020, 961.1666666666666, N
346252, 961.8111111111111, "
346606, 962.7944444444445, N
346857, 963.4916666666667, "
347210, 964.4722222222222, N
347468, 965.1888888888889, "
347817, 966.1583333333333, N
348058, 966.8277777777778, "
348420, 967.8333333333334, N
348674, 968.5388888888889, "
349025, 969.5138888888889, N
349285, 970.2361111111111, "
349631, 971.1972222222222, N
349879, 971.8861111111111, "
350244, 972.9, N
350486, 973.5722222222222, "
350832, 974.5333333333333, N
351070, 975.1944444444445, "
351430, 976.1944444444445, N
351673, 976.8694444444444, "
352005, 977.7916666666666, N
352234, 978.4277777777778, "
352585, 979.4027777777778, N
352829, 980.0805555555555, "
353174, 981.0388888888889, N
353420, 981.7222222222222, "
353758, 982.6611111111112, N
354005, 983.3472222222222, "
354360, 984.3333333333334, N
354597, 984.9916666666667, "
354940, 985.9444444444445, N
355199, 986.6638888888889, "
355549, 987.6361111111111, N
355781, 988.2805555555556, "
356126, 989.2388888888889, N
356368, 989.9111111111112, "
356708, 990.8555555555556, N
356943, 991.5083333333333, "
357299, 992.4972222222223, N
357544, 993.1777777777778, "
357880, 994.1111111111111, N
358130, 994.8055555555555, "
358489, 995.8027777777778, N
358736, 996.4888888888889, "
359089, 997.4694444444444, N
359358, 998.2166666666667, "
359720, 999.2222222222222, N
359971, 999.9194444444445, "
360340, 1000.9444444444445, N
360611, 1001.6972222222222, "
360965, 1002.6805555555555, N
361226, 1003.4055555555556, "
361583, 1004.3972222222222, N
361822, 1005.0611111111111, "
362172, 1006.0333333333333, N
362421, 1006.725, "
362762, 1007.6722222222222, N
362999, 1008.3305555555555, "
363356, 1009.3222222222222, N
363604, 1010.0111111111111, "
363960, 1011.0, N
364192, 1011.6444444444444, "
364553, 1012.6472222222222, N
364799, 1013.3305555555555, "
365159, 1014.3305555555555, N
365411, 1015.0305555555556, "
365751, 1015.975, N
366001, 1016.6694444444445, "
366352, 1017.6444444444444, N
366599, 1018.3305555555555, "
366948, 1019.3, N
367197, 1019.9916666666667, "
367542, 1020.95, N
367795, 1021.6527777777778, "
368145, 1022.625, N
368404, 1023.3444444444444, "
368752, 1024.3111111111111, N
368993, 1024.9805555555556, "
369361, 1026.0027777777777, N
369616, 1026.7111111111112, "
369968, 1027.6888888888889, N
370224, 1028.4, "
370587, 1029.4083333333333, N
370848, 1030.1333333333334, "
371228, 1031.1888888888889, N
371484, 1031.9, "
371838, 1032.8833333333334, N
372088, 1033.5777777777778, "
372443, 1034.5638888888889, N
372679, 1035.2194444444444, "
373023, 1036.175, N
373272, 1036.8666666666666, "
373609, 1037.8027777777777, N
373854, 1038.4833333333333, "
374209, 1039.4694444444444, N
374460, 1040.1666666666667, "
374824, 1041.1777777777777, N
375095, 1041.9305555555557, "
375459, 1042.9416666666666, N
375703, 1043.6194444444445, "
375925, 1044.236111111111, +
376064, 1044.6222222222223, N
376379, 1045.4972222222223, R
376677, 1046.325, R
377028, 1047.3, R
377370, 1048.25, R
377689, 1049.1361111111112, R
378070, 1050.1944444444443, R
378455, 1051.263888888889, R
378817, 1052.2694444444444, R
379216, 1053.3777777777777, R
379578, 1054.3833333333334, R
379932, 1055.3666666666666, R
380300, 1056.388888888889, R
380645, 1057.3472222222222, R
380990, 1058.3055555555557, R
381350, 1059.3055555555557, R
381694, 1060.2611111111112, R
382027, 1061.1861111111111, R
382367, 1062.1305555555555, R
382705, 1063.0694444444443, R
383040, 1064.0, R
383379, 1064.9416666666666, R
383723, 1065.8972222222221, R
384042, 1066.7833333333333, R
384400, 1067.7777777777778, R
384754, 1068.7611111111112, R
385099, 1069.7194444444444, R
385448, 1070.6888888888889, R
385799, 1071.6638888888888, R
386130, 1072.5833333333333, R
386492, 1073.588888888889, R
386850, 1074.5833333333333, R
387195, 1075.5416666666667, R
387549, 1076.525, R
387898, 1077.4944444444445, R
388225, 1078.4027777777778, R
388562, 1079.338888888889, R
388889, 1080.2472222222223, R
389207, 1081.1305555555555, R
389528, 1082.0222222222221, R
389858, 1082.9388888888889, R
390180, 1083.8333333333333, R
390531, 1084.8083333333334, R
390901, 1085.8361111111112, R
391247, 1086.7972222222222, R
391601, 1087.7805555555556, R
391968, 1088.8, R
392312, 1089.7555555555555, R
392660, 1090.7222222222222, R
393029, 1091.7472222222223, R
393361, 1092.6694444444445, R
393709, 1093.6361111111112, R
394071, 1094.6416666666667, R
394412, 1095.588888888889, R
394770, 1096.5833333333333, R
395150, 1097.638888888889, R
395487, 1098.575, R
395832, 1099.5333333333333, R
396170, 1100.4722222222222, R
396485, 1101.3472222222222, R
396820, 1102.2777777777778, R
397164, 1103.2333333333333, R
397474, 1104.0944444444444, R
397822, 1105.0611111111111, R
398184, 1106.0666666666666, R
398511, 1106.975, R
398863, 1107.9527777777778, R
399244, 1109.0111111111112, R
399591, 1109.975, R
399928, 1110.911111111111, R
400279, 1111.8861111111112, R
400623, 1112.8416666666667, R
400961, 1113.7805555555556, R
401311, 1114.7527777777777, R
401669, 1115.7472222222223, R
402005, 1116.6805555555557, R
402376, 1117.7111111111112, R
402733, 1118.7027777777778, R
403076, 1119.6555555555556, R
403413, 1120.5916666666667, R
403744, 1121.5111111111112, R
404067, 1122.4083333333333, R
404406, 1123.35, R
404746, 1124.2944444444445, R
405063, 1125.175, R
405388, 1126.0777777777778, R
405725, 1127.013888888889, R
406050, 1127.9166666666667, R
406385, 1128.8472222222222, R
406755, 1129.875, R
407106, 1130.85, R
407430, 1131.75, R
407777, 1132.713888888889, R
408124, 1133.6777777777777, R
408435, 1134.5416666666667, R
408785, 1135.513888888889, R
409128, 1136.4666666666667, R
409441, 1137.3361111111112, R
409752, 1138.2, R
410082, 1139.1166666666666, R
410400, 1140.0, R
410727, 1140.9083333333333, R
411074, 1141.8722222222223, R
411430, 1142.861111111111, R
411766, 1143.7944444444445, R
412143, 1144.8416666666667, R
412494, 1145.8166666666666, R
412844, 1146.7888888888888, R
413195, 1147.763888888889, R
413544, 1148.7333333333333, R
413874, 1149.65, R
414224, 1150.6222222222223, R
414573, 1151.5916666666667, R
414914, 1152.5388888888888, R
415265, 1153.513888888889, R
415613, 1154.4805555555556, R
415944, 1155.4, R
416291, 1156.3638888888888, R
416633, 1157.3138888888889, R
416967, 1158.2416666666666, R
417307, 1159.1861111111111, R
417658, 1160.161111111111, R
418007, 1161.1305555555555, R
418333, 1162.036111111111, R
418672, 1162.9777777777779, R
419030, 1163.9722222222222, R
419346, 1164.85, R
419703, 1165.8416666666667, R
420088, 1166.911111111111, R
420425, 1167.8472222222222, R
420817, 1168.9361111111111, R
421189, 1169.9694444444444, R
421531, 1170.9194444444445, R
421870, 1171.861111111111, R
422209, 1172.8027777777777, R
422526, 1173.6833333333334, R
422890, 1174.6944444444443, R
423254, 1175.7055555555555, R
423594, 1176.65, R
423969, 1177.6916666666666, R
424333, 1178.7027777777778, R
424676, 1179.6555555555556, R
425045, 1180.6805555555557, R
425390, 1181.638888888889, R
425720, 1182.5555555555557, R
426061, 1183.5027777777777, R
426390, 1184.4166666666667, R
426728, 1185.3555555555556, R
427067, 1186.2972222222222, R
427402, 1187.2277777777779, R
427762, 1188.2277777777779, R
428116, 1189.2111111111112, R
428457, 1190.1583333333333, R
428828, 1191.1888888888889, R
429178, 1192.161111111111, R
429506, 1193.0722222222223, R
429870, 1194.0833333333333, R
430234, 1195.0944444444444, R
430581, 1196.0583333333334, R
430972, 1197.1444444444444, R
431347, 1198.1861111111111, R
431705, 1199.1805555555557, R
432067, 1200.1861111111111, R
432411, 1201.1416666666667, R
432750, 1202.0833333333333, R
433065, 1202.9583333333333, R
433387, 1203.8527777777779, R
433692, 1204.7, R
433855, 1205.1527777777778, +
433946, 1205.4055555555556, "
434287, 1206.3527777777779, R
434534, 1207.0388888888888, "
434894, 1208.0388888888888, R
435127, 1208.6861111111111, "
435475, 1209.6527777777778, R
435717, 1210.325, "
436069, 1211.3027777777777, R
436311, 1211.975, "
436666, 1212.9611111111112, R
436917, 1213.6583333333333, "
437262, 1214.6166666666666, R
437514, 1215.3166666666666, "
437877, 1216.325, R
438126, 1217.0166666666667, "
438484, 1218.0111111111112, R
438724, 1218.6777777777777, "
439083, 1219.675, R
439338, 1220.3833333333334, "
439689, 1221.3583333333333, R
439940, 1222.0555555555557, "
440275, 1222.986111111111, R
440543, 1223.7305555555556, "
440900, 1224.7222222222222, R
441130, 1225.361111111111, "
441481, 1226.3361111111112, R
441729, 1227.025, "
442095, 1228.0416666666667, R
442337, 1228.713888888889, "
442689, 1229.6916666666666, R
442931, 1230.3638888888888, "
443280, 1231.3333333333333, R
443525, 1232.013888888889, "
443870, 1232.9722222222222, R
444107, 1233.6305555555555, "
444438, 1234.55, R
444683, 1235.2305555555556, "
445020, 1236.1666666666667, R
445260, 1236.8333333333333, "
445603, 1237.786111111111, R
445850, 1238.4722222222222, "
446187, 1239.4083333333333, R
446422, 1240.0611111111111, "
446770, 1241.0277777777778, R
447011, 1241.6972222222223, "
447349, 1242.6361111111112, R
447599, 1243.3305555555555, "
447958, 1244.3277777777778, R
448216, 1245.0444444444445, "
448425, 1245.625, +
448583, 1246.0638888888889, R
448891, 1246.9194444444445, R
449200, 1247.7777777777778, R
449567, 1248.7972222222222, R
449942, 1249.838888888889, R
450300, 1250.8333333333333, R
450728, 1252.0222222222221, R
451121, 1253.1138888888888, R
451490, 1254.138888888889, R
451859, 1255.1638888888888, R
452198, 1256.1055555555556, R
452553, 1257.0916666666667, R
452904, 1258.0666666666666, R
453250, 1259.0277777777778, R
453579, 1259.9416666666666, R
453905, 1260.8472222222222, R
454224, 1261.7333333333333, R
454575, 1262.7083333333333, R
454916, 1263.6555555555556, R
455251, 1264.5861111111112, R
455616, 1265.6, R
455974, 1266.5944444444444, R
456313, 1267.536111111111, R
456672, 1268.5333333333333, R
457008, 1269.4666666666667, R
457331, 1270.3638888888888, R
457682, 1271.338888888889, R
458000, 1272.2222222222222, R
458325, 1273.125, R
458645, 1274.013888888889, R
458808, 1274.4666666666667, +
458878, 1274.661111111111, "
459236, 1275.6555555555556, R
459476, 1276.3222222222223, "
459830, 1277.3055555555557, R
460069, 1277.9694444444444, "
460417, 1278.9361111111111, R
460667, 1279.6305555555555, "
461002, 1280.5611111111111, R
461245, 1281.236111111111, "
461595, 1282.2083333333333, R
461832, 1282.8666666666666, "
462176, 1283.8222222222223, R
462424, 1284.5111111111112, "
462762, 1285.45, R
463002, 1286.1166666666666, "
463354, 1287.0944444444444, R
463604, 1287.7888888888888, "
463956, 1288.7666666666667, R
464207, 1289.463888888889, "
464563, 1290.4527777777778, R
464816, 1291.1555555555556, "
465164, 1292.1222222222223, R
465418, 1292.8277777777778, "
465774, 1293.8166666666666, R
466011, 1294.475, "
466372, 1295.4777777777779, R
466613, 1296.1472222222221, "
466941, 1297.0583333333334, R
467176, 1297.7111111111112, "
467520, 1298.6666666666667, R
467759, 1299.3305555555555, "
468106, 1300.2944444444445, R
468360, 1301.0, "
468709, 1301.9694444444444, R
468960, 1302.6666666666667, "
469323, 1303.675, N
469591, 1304.4194444444445, "
469943, 1305.3972222222221, N
470220, 1306.1666666666667, "
470592, 1307.2, N
470844, 1307.9, "
471207, 1308.9083333333333, N
471473, 1309.6472222222221, "
471838, 1310.661111111111, N
472080, 1311.3333333333333, "
472446, 1312.35, N
472692, 1313.0333333333333, "
473043, 1314.0083333333334, N
473278, 1314.661111111111, "
473635, 1315.6527777777778, N
473875, 1316.3194444444443, "
474222, 1317.2833333333333, N
474465, 1317.9583333333333, "
474808, 1318.911111111111, N
475054, 1319.5944444444444, "
475414, 1320.5944444444444, N
475657, 1321.2694444444444, "
476006, 1322.2388888888888, N
476257, 1322.9361111111111, "
476611, 1323.9194444444445, N
476846, 1324.5722222222223, "
477208, 1325.5777777777778, N
477459, 1326.275, "
477801, 1327.225, N
478040, 1327.888888888889, "
478411, 1328.9194444444445, N
478646, 1329.5722222222223, "
479012, 1330.588888888889, N
479272, 1331.3111111111111, "
479630, 1332.3055555555557, N
479864, 1332.9555555555555, "
480237, 1333.9916666666666, N
480488, 1334.6888888888889, "
480849, 1335.6916666666666, N
481122, 1336.45, "
481486, 1337.4611111111112, N
481735, 1338.1527777777778, "
482086, 1339.1277777777777, N
482349, 1339.8583333333333, "
482710, 1340.861111111111, N
482949, 1341.525, "
483309, 1342.525, N
483585, 1343.2916666666667, "
483928, 1344.2444444444445, N
484178, 1344.9388888888889, "
484534, 1345.9277777777777, N
484778, 1346.6055555555556, "
485139, 1347.6083333333333, N
485393, 1348.3138888888889, "
485739, 1349.275, N
485986, 1349.9611111111112, "
486341, 1350.9472222222223, N
486576, 1351.6, "
486920, 1352.5555555555557, N
487166, 1353.2388888888888, "
487508, 1354.1888888888889, N
487734, 1354.8166666666666, "
488089, 1355.8027777777777, N
488330, 1356.4722222222222, "
488673, 1357.425, N
488926, 1358.1277777777777, "
489286, 1359.1277777777777, N
489546, 1359.85, "
489905, 1360.8472222222222, N
490166, 1361.5722222222223, "
490522, 1362.5611111111111, N
490769, 1363.2472222222223, "
491140, 1364.2777777777778, N
491407, 1365.0194444444444, "
491758, 1365.9944444444445, N
492007, 1366.6861111111111, "
492377, 1367.713888888889, N
492627, 1368.4083333333333, "
492987, 1369.4083333333333, N
493248, 1370.1333333333334, "
493594, 1371.0944444444444, N
493840, 1371.7777777777778, "
494213, 1372.8138888888889, N
494461, 1373.5027777777777, "
494820, 1374.5, N
495063, 1375.175, "
495414, 1376.15, N
495658, 1376.8277777777778, "
496012, 1377.8111111111111, N
496249, 1378.4694444444444, "
496593, 1379.425, N
496840, 1380.111111111111, "
497203, 1381.1194444444445, N
497458, 1381.8277777777778, "
497804, 1382.7888888888888, N
498077, 1383.5472222222222, "
498437, 1384.5472222222222, N
498700, 1385.2777777777778, "
499064, 1386.2888888888888, N
499326, 1387.0166666666667, "
499685, 1388.013888888889, N
499949, 1388.7472222222223, "
500311, 1389.7527777777777, N
500535, 1390.375, "
500894, 1391.3722222222223, N
501155, 1392.0972222222222, "
501505, 1393.0694444444443, N
501738, 1393.7166666666667, "
502099, 1394.7194444444444, N
502350, 1395.4166666666667, "
502689, 1396.3583333333333, N
502931, 1397.0305555555556, "
503280, 1398.0, N
503523, 1398.675, "
503872, 1399.6444444444444, N
504112, 1400.3111111111111, "
504469, 1401.3027777777777, N
504726, 1402.0166666666667, "
505086, 1403.0166666666667, N
505345, 1403.736111111111, "
505702, 1404.7277777777779, N
505962, 1405.45, "
506321, 1406.4472222222223, N
506581, 1407.1694444444445, "
506954, 1408.2055555555555, N
507209, 1408.9138888888888, "
507445, 1409.5694444444443, +
507577, 1409.9361111111111, N
507901, 1410.8361111111112, R
508210, 1411.6944444444443, R
508531, 1412.5861111111112, R
508878, 1413.55, R
509207, 1414.463888888889, R
509536, 1415.3777777777777, R
509886, 1416.35, R
510214, 1417.2611111111112, R
510562, 1418.2277777777779, R
510934, 1419.2611111111112, R
511276, 1420.2111111111112, R
511633, 1421.2027777777778, R
512002, 1422.2277777777779, R
512344, 1423.1777777777777, R
512705, 1424.1805555555557, R
513073, 1425.2027777777778, R
513410, 1426.138888888889, R
513758, 1427.1055555555556, R
514109, 1428.0805555555555, R
514432, 1428.9777777777779, R
514785, 1429.9583333333333, R
515143, 1430.9527777777778, R
515478, 1431.8833333333334, R
515837, 1432.8805555555555, R
516198, 1433.8833333333334, R
516545, 1434.8472222222222, R
516904, 1435.8444444444444, R
517274, 1436.8722222222223, R
517621, 1437.8361111111112, R
517993, 1438.8694444444445, R
518350, 1439.861111111111, R
518713, 1440.8694444444445, R
519062, 1441.838888888889, R
519409, 1442.8027777777777, R
519779, 1443.8305555555555, R
520117, 1444.7694444444444, R
520478, 1445.7722222222221, R
520833, 1446.7583333333334, R
521191, 1447.7527777777777, R
521554, 1448.7611111111112, R
521909, 1449.7472222222223, R
522270, 1450.75, R
522635, 1451.763888888889, R
522994, 1452.7611111111112, R
523356, 1453.7666666666667, R
523729, 1454.8027777777777, R
524078, 1455.7722222222221, R
524432, 1456.7555555555555, R
524792, 1457.7555555555555, R
525136, 1458.7111111111112, R
525509, 1459.7472222222223, R
525890, 1460.8055555555557, R
526233, 1461.7583333333334, R
526598, 1462.7722222222221, R
526974, 1463.8166666666666, R
527326, 1464.7944444444445, R
527691, 1465.8083333333334, R
528042, 1466.7833333333333, R
528377, 1467.713888888889, R
528740, 1468.7222222222222, R
529104, 1469.7333333333333, R
529435, 1470.6527777777778, R
529800, 1471.6666666666667, R
530149, 1472.6361111111112, R
530479, 1473.5527777777777, R
530826, 1474.5166666666667, R
531169, 1475.4694444444444, R
531484, 1476.3444444444444, R
531834, 1477.3166666666666, R
532174, 1478.2611111111112, R
532490, 1479.138888888889, R
532848, 1480.1333333333334, R
533195, 1481.0972222222222, R
533517, 1481.9916666666666, R
533869, 1482.9694444444444, R
534212, 1483.9222222222222, R
534539, 1484.8305555555555, R
534895, 1485.8194444444443, R
535236, 1486.7666666666667, R
535565, 1487.6805555555557, R
535934, 1488.7055555555555, R
536285, 1489.6805555555557, R
536613, 1490.5916666666667, R
536976, 1491.6, R
537316, 1492.5444444444445, R
537655, 1493.486111111111, R
537999, 1494.4416666666666, R
538375, 1495.486111111111, R
538726, 1496.4611111111112, R
539080, 1497.4444444444443, R
539444, 1498.4555555555555, R
539801, 1499.4472222222223, R
540146, 1500.4055555555556, R
540522, 1501.45, R
540876, 1502.4333333333334, R
541254, 1503.4833333333333, R
541646, 1504.5722222222223, R
542002, 1505.5611111111111, R
542365, 1506.5694444444443, R
542740, 1507.611111111111, R
543088, 1508.5777777777778, R
543454, 1509.5944444444444, R
543806, 1510.5722222222223, R
544136, 1511.4888888888888, R
544495, 1512.486111111111, R
544860, 1513.5, R
545203, 1514.4527777777778, R
545589, 1515.525, R
545959, 1516.5527777777777, R
546300, 1517.5, R
546676, 1518.5444444444445, R
547014, 1519.4833333333333, R
547353, 1520.425, R
547716, 1521.4333333333334, R
548054, 1522.3722222222223, R
548388, 1523.3, R
548742, 1524.2833333333333, R
549083, 1525.2305555555556, R
549436, 1526.2111111111112, R
549809, 1527.2472222222223, R
550185, 1528.2916666666667, R
550535, 1529.263888888889, R
550915, 1530.3194444444443, R
551300, 1531.388888888889, R
551652, 1532.3666666666666, R
552025, 1533.4027777777778, R
552395, 1534.4305555555557, R
552737, 1535.3805555555555, R
553094, 1536.3722222222223, R
553450, 1537.361111111111, R
553777, 1538.2694444444444, R
554123, 1539.2305555555556, R
554474, 1540.2055555555555, R
554817, 1541.1583333333333, R
555161, 1542.1138888888888, R
555532, 1543.1444444444444, R
555864, 1544.0666666666666, R
556192, 1544.9777777777779, R
556529, 1545.9138888888888, R
556844, 1546.7888888888888, R
557185, 1547.736111111111, R
557556, 1548.7666666666667, R
557877, 1549.6583333333333, R
558244, 1550.6777777777777, R
558624, 1551.7333333333333, R
558960, 1552.6666666666667, R
559333, 1553.7027777777778, R
559669, 1554.6361111111112, R
559997, 1555.5472222222222, R
560317, 1556.4361111111111, R
560671, 1557.4194444444445, R
560987, 1558.2972222222222, R
561345, 1559.2916666666667, R
561694, 1560.2611111111112, R
562019, 1561.1638888888888, R
562389, 1562.1916666666666, R
562769, 1563.2472222222223, R
563100, 1564.1666666666667, R
563491, 1565.2527777777777, R
563848, 1566.2444444444445, R
564187, 1567.1861111111111, R
564563, 1568.2305555555556, R
564907, 1569.1861111111111, R
565249, 1570.1361111111112, R
565589, 1571.0805555555555, R
565911, 1571.975, R
566233, 1572.8694444444445, R
566581, 1573.8361111111112, R
566917, 1574.7694444444444, R
567259, 1575.7194444444444, R
567621, 1576.725, R
567973, 1577.7027777777778, R
568306, 1578.6277777777777, R
568686, 1579.6833333333334, R
569038, 1580.661111111111, R
569387, 1581.6305555555555, R
569745, 1582.625, R
570091, 1583.5861111111112, R
570432, 1584.5333333333333, R
570780, 1585.5, R
571136, 1586.4888888888888, R
571467, 1587.4083333333333, R
571804, 1588.3444444444444, R
572144, 1589.2888888888888, R
572466, 1590.1833333333334, R
572812, 1591.1444444444444, R
573168, 1592.1333333333334, R
573489, 1593.025, R
573843, 1594.0083333333334, R
574192, 1594.9777777777779, R
574529, 1595.9138888888888, R
574878, 1596.8833333333334, R
575238, 1597.8833333333334, R
575572, 1598.8111111111111, R
575930, 1599.8055555555557, R
576308, 1600.8555555555556, R
576649, 1601.8027777777777, R
577008, 1602.8, R
577368, 1603.8, R
577692, 1604.7, R
578028, 1605.6333333333334, R
578353, 1606.536111111111, R
578606, 1607.2388888888888, "
578987, 1608.2972222222222, N
579311, 1609.1972222222223, R
579611, 1610.0305555555556, R
579951, 1610.975, R
580299, 1611.9416666666666, R
580617, 1612.825, R
580979, 1613.8305555555555, R
581353, 1614.8694444444445, R
581694, 1615.8166666666666, R
582051, 1616.8083333333334, R
582417, 1617.825, R
582749, 1618.7472222222223, R
583113, 1619.7583333333334, R
583457, 1620.713888888889, R
583791, 1621.6416666666667, R
584160, 1622.6666666666667, R
584515, 1623.6527777777778, R
584838, 1624.55, R
585185, 1625.513888888889, R
585514, 1626.4277777777777, R
585830, 1627.3055555555557, R
586171, 1628.2527777777777, R
586512, 1629.2, R
586834, 1630.0944444444444, R
587195, 1631.0972222222222, R
587541, 1632.0583333333334, R
587875, 1632.986111111111, R
588250, 1634.0277777777778, R
588598, 1634.9944444444445, R
588945, 1635.9583333333333, R
589299, 1636.9416666666666, R
589649, 1637.9138888888888, R
589980, 1638.8333333333333, R
590345, 1639.8472222222222, R
590689, 1640.8027777777777, R
591029, 1641.7472222222223, R
591372, 1642.7, R
591710, 1643.638888888889, R
592040, 1644.5555555555557, R
592373, 1645.4805555555556, R
592713, 1646.425, R
593044, 1647.3444444444444, R
593392, 1648.3111111111111, R
593748, 1649.3, R
594082, 1650.2277777777779, R
594427, 1651.1861111111111, R
594790, 1652.1944444444443, R
595130, 1653.138888888889, R
595458, 1654.05, R
595827, 1655.075, R
596196, 1656.1, R
596534, 1657.0388888888888, R
596912, 1658.088888888889, R
597272, 1659.088888888889, R
597607, 1660.0194444444444, R
597989, 1661.0805555555555, R
598340, 1662.0555555555557, R
598673, 1662.9805555555556, R
599023, 1663.9527777777778, R
599348, 1664.8555555555556, R
599672, 1665.7555555555555, R
600021, 1666.725, R
600364, 1667.6777777777777, R
600714, 1668.65, R
601059, 1669.6083333333333, R
601414, 1670.5944444444444, R
601753, 1671.536111111111, R
602101, 1672.5027777777777, R
602458, 1673.4944444444445, R
602806, 1674.4611111111112, R
603157, 1675.4361111111111, R
603501, 1676.3916666666667, R
603848, 1677.3555555555556, R
604196, 1678.3222222222223, R
604532, 1679.2555555555555, R
604875, 1680.2083333333333, R
605208, 1681.1333333333334, R
605542, 1682.0611111111111, R
605874, 1682.9833333333333, R
606208, 1683.911111111111, R
606562, 1684.8944444444444, R
606903, 1685.8416666666667, R
607249, 1686.8027777777777, R
607607, 1687.7972222222222, R
607946, 1688.7388888888888, R
608301, 1689.725, R
608668, 1690.7444444444445, R
609005, 1691.6805555555557, R
609344, 1692.6222222222223, R
609687, 1693.575, R
610033, 1694.536111111111, R
610366, 1695.4611111111112, R
610725, 1696.4583333333333, R
611073, 1697.425, R
611404, 1698.3444444444444, R
611761, 1699.3361111111112, R
612120, 1700.3333333333333, R
612453, 1701.2583333333334, R
612814, 1702.2611111111112, R
613154, 1703.2055555555555, R
613488, 1704.1333333333334, R
613849, 1705.1361111111112, R
614204, 1706.1222222222223, R
614562, 1707.1166666666666, R
614924, 1708.1222222222223, R
615302, 1709.1722222222222, R
615663, 1710.175, R
616030, 1711.1944444444443, R
616393, 1712.2027777777778, R
616741, 1713.1694444444445, R
617089, 1714.1361111111112, R
617436, 1715.1, R
617781, 1716.0583333333334, R
618123, 1717.0083333333334, R
618480, 1718.0, R
618817, 1718.9361111111111, R
619150, 1719.861111111111, R
619500, 1720.8333333333333, R
619838, 1721.7722222222221, R
620181, 1722.725, R
620554, 1723.7611111111112, R
620887, 1724.6861111111111, R
621239, 1725.6638888888888, R
621603, 1726.675, R
621947, 1727.6305555555555, R
622301, 1728.6138888888888, R
622668, 1729.6333333333334, R
623007, 1730.575, R
623348, 1731.5222222222221, R
623704, 1732.5111111111112, R
624049, 1733.4694444444444, R
624391, 1734.4194444444445, R
624746, 1735.4055555555556, R
625097, 1736.3805555555555, R
625432, 1737.3111111111111, R
625787, 1738.2972222222222, R
626128, 1739.2444444444445, R
626466, 1740.1833333333334, R
626801, 1741.1138888888888, R
627136, 1742.0444444444445, R
627465, 1742.9583333333333, R
627805, 1743.9027777777778, R
628156, 1744.8777777777777, R
628490, 1745.8055555555557, R
628822, 1746.7277777777779, R
629175, 1747.7083333333333, R
629549, 1748.7472222222223, R
629886, 1749.6833333333334, R
630251, 1750.6972222222223, R
630604, 1751.6777777777777, R
630928, 1752.5777777777778, R
631281, 1753.5583333333334, R
631632, 1754.5333333333333, R
631950, 1755.4166666666667, R
632297, 1756.3805555555555, R
632622, 1757.2833333333333, R
632878, 1757.9944444444445, "
633251, 1759.0305555555556, N
633581, 1759.9472222222223, R
633890, 1760.8055555555557, R
634242, 1761.7833333333333, R
634586, 1762.7388888888888, R
634907, 1763.6305555555555, R
635261, 1764.6138888888888, R
635623, 1765.6194444444445, R
635962, 1766.5611111111111, R
636346, 1767.6277777777777, R
636708, 1768.6333333333334, R
637058, 1769.6055555555556, R
637432, 1770.6444444444444, R
637787, 1771.6305555555555, R
638134, 1772.5944444444444, R
638493, 1773.5916666666667, R
638825, 1774.513888888889, R
639161, 1775.4472222222223, R
639513, 1776.425, R
639853, 1777.3694444444445, R
640204, 1778.3444444444444, R
640560, 1779.3333333333333, R
640922, 1780.338888888889, R
641265, 1781.2916666666667, R
641629, 1782.3027777777777, R
641990, 1783.3055555555557, R
642344, 1784.2888888888888, R
642707, 1785.2972222222222, R
643074, 1786.3166666666666, R
643424, 1787.2888888888888, R
643775, 1788.263888888889, R
644141, 1789.2805555555556, R
644480, 1790.2222222222222, R
644833, 1791.2027777777778, R
645174, 1792.15, R
645514, 1793.0944444444444, R
645838, 1793.9944444444445, R
646167, 1794.9083333333333, R
646431, 1795.6416666666667, "
646801, 1796.6694444444445, N
647128, 1797.5777777777778, R
647439, 1798.4416666666666, R
647777, 1799.3805555555555, R
648124, 1800.3444444444444, R
648456, 1801.2666666666667, R
648811, 1802.2527777777777, R
649142, 1803.1722222222222, R
649501, 1804.1694444444445, R
649862, 1805.1722222222222, R
