3, 0.008333333333333333, +
42, 0.11666666666666667, V
320, 0.8888888888888888, N
511, 1.4194444444444445, V
749, 2.0805555555555557, N
964, 2.6777777777777776, N
1107, 3.075, V
1383, 3.841666666666667, N
1574, 4.372222222222222, V
1819, 5.052777777777778, N
2035, 5.652777777777778, N
2173, 6.036111111111111, V
2449, 6.802777777777778, N
2671, 7.419444444444444, N
2884, 8.011111111111111, N
3013, 8.369444444444444, V
3307, 9.186111111111112, N
3521, 9.780555555555555, N
3729, 10.358333333333333, N
3943, 10.952777777777778, N
4160, 11.555555555555555, N
4375, 12.152777777777779, N
4521, 12.558333333333334, V
4796, 13.322222222222223, N
4954, 13.761111111111111, V
5218, 14.494444444444444, N
5439, 15.108333333333333, N
5582, 15.505555555555556, A
5765, 16.01388888888889, V
6044, 16.788888888888888, N
6253, 17.369444444444444, N
6464, 17.955555555555556, N
6680, 18.555555555555557, N
6891, 19.141666666666666, N
7100, 19.72222222222222, N
7310, 20.305555555555557, N
7475, 20.76388888888889, A
7710, 21.416666666666668, N
7925, 22.01388888888889, N
8071, 22.419444444444444, V
8346, 23.183333333333334, N
8557, 23.769444444444446, N
8766, 24.35, N
8917, 24.769444444444446, V
9190, 25.52777777777778, N
9400, 26.11111111111111, N
9604, 26.677777777777777, N
9813, 27.258333333333333, N
9923, 27.56388888888889, +
9983, 27.730555555555554, V
10223, 28.397222222222222, V
10354, 28.761111111111113, V
10577, 29.380555555555556, +
10648, 29.57777777777778, N
10829, 30.080555555555556, V
11057, 30.71388888888889, N
11268, 31.3, N
11415, 31.708333333333332, V
11692, 32.477777777777774, N
11882, 33.00555555555555, V
12107, 33.63055555555555, N
12314, 34.205555555555556, N
12462, 34.61666666666667, V
12735, 35.375, N
12931, 35.919444444444444, V
13155, 36.541666666666664, N
13363, 37.11944444444445, N
13564, 37.67777777777778, N
13742, 38.172222222222224, V
13980, 38.833333333333336, N
14186, 39.40555555555556, N
14332, 39.81111111111111, V
14591, 40.53055555555556, N
14790, 41.083333333333336, V
14999, 41.66388888888889, N
15205, 42.236111111111114, N
15412, 42.81111111111111, N
15598, 43.327777777777776, V
15717, 43.65833333333333, V
16022, 44.50555555555555, N
16169, 44.91388888888889, V
16442, 45.672222222222224, N
16647, 46.24166666666667, N
16851, 46.80833333333333, N
17052, 47.36666666666667, N
17255, 47.93055555555556, N
17397, 48.325, V
17665, 49.06944444444444, N
17874, 49.65, N
18076, 50.21111111111111, N
18221, 50.61388888888889, V
18479, 51.330555555555556, N
18686, 51.90555555555556, N
18896, 52.48888888888889, N
19099, 53.05277777777778, N
19303, 53.61944444444445, N
19443, 54.00833333333333, V
19706, 54.73888888888889, N
19910, 55.30555555555556, N
20119, 55.88611111111111, N
20290, 56.361111111111114, V
20525, 57.013888888888886, N
20732, 57.58888888888889, N
20873, 57.980555555555554, V
21140, 58.72222222222222, N
21351, 59.30833333333333, N
21555, 59.875, N
21762, 60.45, N
21965, 61.013888888888886, N
22170, 61.583333333333336, N
22304, 61.955555555555556, V
22579, 62.71944444444444, N
22769, 63.24722222222222, V
22991, 63.86388888888889, N
23196, 64.43333333333334, N
23333, 64.81388888888888, V
23602, 65.56111111111112, N
23754, 65.98333333333333, V
24014, 66.70555555555555, N
24219, 67.275, N
24425, 67.84722222222223, N
24632, 68.42222222222222, N
24832, 68.97777777777777, N
24994, 69.42777777777778, V
25248, 70.13333333333334, N
25453, 70.70277777777778, N
25596, 71.1, V
25856, 71.82222222222222, N
26050, 72.36111111111111, V
26280, 73.0, N
26488, 73.57777777777778, N
26632, 73.97777777777777, V
26896, 74.71111111111111, N
27103, 75.28611111111111, N
27308, 75.85555555555555, N
27462, 76.28333333333333, V
27728, 77.02222222222223, N
27934, 77.59444444444445, N
28134, 78.15, N
28214, 78.37222222222222, +
28295, 78.59722222222223, V
28543, 79.28611111111111, N
28755, 79.875, N
28900, 80.27777777777777, V
29156, 80.9888888888889, N
29317, 81.43611111111112, N
29430, 81.75, V
29581, 82.16944444444445, +
29733, 82.59166666666667, N
29944, 83.17777777777778, N
30152, 83.75555555555556, N
30357, 84.325, N
30560, 84.88888888888889, N
30761, 85.44722222222222, N
30967, 86.01944444444445, N
31178, 86.60555555555555, N
31380, 87.16666666666667, N
31582, 87.72777777777777, N
31783, 88.28611111111111, N
31909, 88.6361111111111, V
32186, 89.40555555555555, N
32389, 89.96944444444445, N
32588, 90.52222222222223, N
32791, 91.08611111111111, N
32991, 91.64166666666667, N
33120, 92.0, V
33388, 92.74444444444444, N
33596, 93.32222222222222, N
33796, 93.87777777777778, N
33937, 94.26944444444445, V
34195, 94.98611111111111, N
34394, 95.53888888888889, N
34598, 96.10555555555555, N
34801, 96.66944444444445, N
35003, 97.23055555555555, N
35145, 97.625, V
35406, 98.35, N
35605, 98.90277777777777, N
35805, 99.45833333333333, N
36008, 100.02222222222223, N
36211, 100.58611111111111, N
36412, 101.14444444444445, N
36605, 101.68055555555556, N
36740, 102.05555555555556, V
37004, 102.78888888888889, N
37203, 103.34166666666667, N
37402, 103.89444444444445, N
37606, 104.46111111111111, N
37800, 105.0, N
37999, 105.55277777777778, N
38196, 106.1, N
38398, 106.66111111111111, N
38601, 107.225, N
38803, 107.78611111111111, N
39003, 108.34166666666667, N
39204, 108.9, N
39406, 109.46111111111111, N
39604, 110.0111111111111, N
39809, 110.58055555555555, N
39956, 110.9888888888889, V
40214, 111.70555555555555, N
40420, 112.27777777777777, N
40620, 112.83333333333333, N
40829, 113.41388888888889, N
41037, 113.99166666666666, N
41240, 114.55555555555556, N
41443, 115.11944444444444, N
41645, 115.68055555555556, V
41855, 116.26388888888889, N
42057, 116.825, N
42269, 117.41388888888889, N
42481, 118.00277777777778, N
42618, 118.38333333333334, V
42893, 119.14722222222223, N
43075, 119.65277777777777, V
43315, 120.31944444444444, N
43526, 120.90555555555555, N
43669, 121.30277777777778, V
43931, 122.03055555555555, N
44125, 122.56944444444444, V
44351, 123.19722222222222, N
44557, 123.76944444444445, N
44623, 123.95277777777778, +
44689, 124.1361111111111, V
44981, 124.94722222222222, N
45107, 125.29722222222222, V
45391, 126.08611111111111, N
45532, 126.47777777777777, V
45822, 127.28333333333333, N
45988, 127.74444444444444, V
46117, 128.1027777777778, +
46246, 128.4611111111111, N
46451, 129.03055555555557, N
46594, 129.42777777777778, V
46858, 130.1611111111111, N
47012, 130.5888888888889, A
47261, 131.28055555555557, N
47477, 131.88055555555556, N
47552, 132.0888888888889, +
47627, 132.29722222222222, V
47891, 133.03055555555557, N
48080, 133.55555555555554, V
48313, 134.20277777777778, N
48463, 134.61944444444444, V
48725, 135.34722222222223, N
48863, 135.73055555555555, V
48999, 136.10833333333332, +
49136, 136.48888888888888, N
49344, 137.06666666666666, N
49555, 137.65277777777777, N
49716, 138.1, V
49969, 138.80277777777778, N
50180, 139.38888888888889, N
50249, 139.58055555555555, +
50318, 139.7722222222222, V
50592, 140.53333333333333, N
50721, 140.89166666666668, V
51019, 141.71944444444443, N
51171, 142.14166666666668, V
51436, 142.87777777777777, N
51601, 143.3361111111111, V
51730, 143.69444444444446, +
51860, 144.05555555555554, N
52077, 144.65833333333333, N
52144, 144.84444444444443, +
52212, 145.03333333333333, V
52498, 145.82777777777778, N
52642, 146.2277777777778, V
52919, 146.99722222222223, N
53071, 147.41944444444445, V
53349, 148.19166666666666, N
53514, 148.65, V
53650, 149.02777777777777, V
53968, 149.9111111111111, N
54117, 150.325, V
54255, 150.70833333333334, +
54394, 151.09444444444443, N
54611, 151.69722222222222, N
54756, 152.1, V
55032, 152.86666666666667, N
55178, 153.2722222222222, V
55459, 154.05277777777778, N
55679, 154.6638888888889, N
55751, 154.86388888888888, +
55823, 155.0638888888889, V
56098, 155.82777777777778, N
56248, 156.24444444444444, V
56525, 157.01388888888889, N
56673, 157.425, V
56799, 157.775, +
56925, 158.125, N
57145, 158.73611111111111, N
57294, 159.15, V
57561, 159.89166666666668, N
57755, 160.43055555555554, V
57990, 161.08333333333334, N
58207, 161.6861111111111, N
58276, 161.87777777777777, +
58345, 162.06944444444446, V
58624, 162.84444444444443, N
58771, 163.25277777777777, V
59054, 164.0388888888889, N
59202, 164.45, V
59480, 165.22222222222223, N
59649, 165.69166666666666, V
59779, 166.05277777777778, +
59909, 166.4138888888889, N
60119, 166.99722222222223, N
60265, 167.40277777777777, V
60554, 168.20555555555555, N
60768, 168.8, F
60892, 169.14444444444445, V
61190, 169.97222222222223, N
61403, 170.5638888888889, N
61610, 171.13888888888889, N
61754, 171.5388888888889, V
62029, 172.30277777777778, N
62237, 172.88055555555556, N
62386, 173.29444444444445, V
62648, 174.0222222222222, N
62865, 174.625, N
63019, 175.05277777777778, V
63287, 175.79722222222222, N
63430, 176.19444444444446, V
63701, 176.94722222222222, N
63917, 177.54722222222222, N
64121, 178.11388888888888, N
64332, 178.7, N
64546, 179.29444444444445, N
64752, 179.86666666666667, N
64897, 180.26944444444445, V
65159, 180.99722222222223, N
65353, 181.5361111111111, V
65577, 182.15833333333333, N
65786, 182.73888888888888, N
65986, 183.29444444444445, N
66147, 183.74166666666667, V
66396, 184.43333333333334, N
66598, 184.99444444444444, N
66805, 185.56944444444446, N
66932, 185.92222222222222, V
67140, 186.5, N
67382, 187.17222222222222, N
67590, 187.75, N
67800, 188.33333333333334, N
68010, 188.91666666666666, N
68218, 189.49444444444444, N
68359, 189.88611111111112, V
68622, 190.61666666666667, N
68780, 191.05555555555554, V
69036, 191.76666666666668, N
69250, 192.36111111111111, N
69396, 192.76666666666668, V
69664, 193.51111111111112, N
69811, 193.91944444444445, V
70079, 194.6638888888889, N
70288, 195.24444444444444, N
70427, 195.63055555555556, V
70710, 196.41666666666666, N
70897, 196.9361111111111, V
71123, 197.5638888888889, N
71334, 198.15, N
71540, 198.72222222222223, N
71709, 199.19166666666666, V
71955, 199.875, N
72160, 200.44444444444446, N
72365, 201.01388888888889, N
72548, 201.5222222222222, V
72784, 202.17777777777778, N
72994, 202.76111111111112, N
73139, 203.1638888888889, V
73407, 203.90833333333333, N
73555, 204.31944444444446, V
73806, 205.01666666666668, N
74021, 205.61388888888888, N
74233, 206.20277777777778, N
74449, 206.80277777777778, N
74658, 207.38333333333333, N
74865, 207.95833333333334, N
75076, 208.54444444444445, N
75291, 209.14166666666668, N
75499, 209.71944444444443, N
75703, 210.2861111111111, N
75809, 210.58055555555555, V
76118, 211.4388888888889, N
76287, 211.90833333333333, V
76542, 212.61666666666667, N
76758, 213.21666666666667, N
76831, 213.41944444444445, +
76905, 213.625, V
77179, 214.38611111111112, N
77319, 214.775, V
77604, 215.56666666666666, N
77754, 215.98333333333332, V
77895, 216.375, +
78036, 216.76666666666668, N
78247, 217.3527777777778, N
78455, 217.93055555555554, N
78671, 218.53055555555557, N
78881, 219.11388888888888, N
79093, 219.70277777777778, N
79310, 220.30555555555554, N
79515, 220.875, N
79693, 221.36944444444444, V
79847, 221.79722222222222, V
80144, 222.62222222222223, N
80361, 223.225, N
80538, 223.71666666666667, V
80775, 224.375, F
80982, 224.95, N
81133, 225.36944444444444, V
81396, 226.1, F
81612, 226.7, N
81823, 227.2861111111111, N
82034, 227.87222222222223, N
82212, 228.36666666666667, V
82375, 228.81944444444446, V
82663, 229.61944444444444, N
82873, 230.20277777777778, N
83083, 230.7861111111111, N
83290, 231.36111111111111, N
83500, 231.94444444444446, N
83707, 232.51944444444445, N
83916, 233.1, N
84128, 233.6888888888889, N
84284, 234.12222222222223, V
84525, 234.79166666666666, V
84745, 235.40277777777777, N
84956, 235.98888888888888, N
85167, 236.575, N
85372, 237.14444444444445, N
85507, 237.51944444444445, V
85779, 238.275, N
85991, 238.86388888888888, N
86197, 239.4361111111111, N
86411, 240.03055555555557, N
86625, 240.625, N
86829, 241.19166666666666, N
87036, 241.76666666666668, N
87175, 242.15277777777777, V
87455, 242.93055555555554, N
87627, 243.40833333333333, V
87879, 244.10833333333332, N
88085, 244.68055555555554, N
88225, 245.06944444444446, V
88496, 245.82222222222222, N
88637, 246.2138888888889, V
88920, 247.0, N
89132, 247.5888888888889, N
89342, 248.17222222222222, N
89549, 248.74722222222223, N
89763, 249.34166666666667, N
89980, 249.94444444444446, N
90188, 250.5222222222222, N
90399, 251.10833333333332, N
90611, 251.69722222222222, N
90824, 252.2888888888889, N
91028, 252.85555555555555, N
91243, 253.45277777777778, N
91460, 254.05555555555554, N
91666, 254.62777777777777, N
91873, 255.20277777777778, N
92015, 255.59722222222223, V
92291, 256.3638888888889, N
92498, 256.93888888888887, F
92716, 257.5444444444444, N
92921, 258.1138888888889, N
93130, 258.69444444444446, N
93293, 259.14722222222224, V
93421, 259.5027777777778, V
93750, 260.4166666666667, N
93915, 260.875, V
94180, 261.6111111111111, N
94390, 262.19444444444446, N
94599, 262.775, N
94817, 263.38055555555553, N
95031, 263.975, N
95177, 264.38055555555553, V
95452, 265.14444444444445, N
95665, 265.7361111111111, N
95798, 266.10555555555555, V
96091, 266.9194444444444, N
96309, 267.525, N
96524, 268.1222222222222, N
96738, 268.71666666666664, N
96945, 269.2916666666667, N
97087, 269.68611111111113, V
97374, 270.48333333333335, N
97589, 271.0805555555556, N
97798, 271.6611111111111, N
98011, 272.2527777777778, N
98224, 272.84444444444443, N
98366, 273.2388888888889, V
98646, 274.01666666666665, N
98864, 274.6222222222222, N
99078, 275.21666666666664, N
99290, 275.80555555555554, N
99501, 276.39166666666665, N
99714, 276.98333333333335, N
99864, 277.4, V
100139, 278.1638888888889, N
100349, 278.7472222222222, N
100559, 279.3305555555556, N
100690, 279.69444444444446, V
100986, 280.51666666666665, N
101151, 280.975, V
101412, 281.7, N
101626, 282.2944444444444, N
101836, 282.8777777777778, N
102038, 283.43888888888887, F
102268, 284.0777777777778, N
102479, 284.6638888888889, N
102691, 285.2527777777778, N
102905, 285.84722222222223, N
103044, 286.23333333333335, V
103326, 287.01666666666665, N
103547, 287.63055555555553, N
103770, 288.25, N
103910, 288.6388888888889, V
104195, 289.43055555555554, N
104352, 289.8666666666667, V
104630, 290.6388888888889, N
104850, 291.25, N
105067, 291.85277777777776, N
105276, 292.43333333333334, N
105485, 293.0138888888889, N
105630, 293.4166666666667, V
105909, 294.19166666666666, N
106125, 294.7916666666667, N
106338, 295.3833333333333, N
106549, 295.96944444444443, N
106758, 296.55, N
106900, 296.94444444444446, V
107187, 297.7416666666667, N
107399, 298.3305555555556, N
107610, 298.9166666666667, N
107737, 299.26944444444445, V
108033, 300.09166666666664, N
108246, 300.68333333333334, N
108461, 301.28055555555557, N
108611, 301.6972222222222, V
108886, 302.4611111111111, N
109102, 303.06111111111113, N
109312, 303.64444444444445, N
109386, 303.85, +
109461, 304.05833333333334, V
109747, 304.85277777777776, N
109900, 305.27777777777777, V
110171, 306.03055555555557, N
110316, 306.43333333333334, V
110601, 307.225, N
110768, 307.68888888888887, V
110905, 308.06944444444446, +
111043, 308.4527777777778, N
111263, 309.06388888888887, N
111481, 309.6694444444444, N
111692, 310.25555555555553, N
111912, 310.8666666666667, N
112048, 311.24444444444447, V
112351, 312.0861111111111, N
112565, 312.68055555555554, N
112779, 313.275, N
112845, 313.4583333333333, +
112912, 313.64444444444445, V
113210, 314.47222222222223, N
113366, 314.90555555555557, V
113649, 315.69166666666666, N
113775, 316.0416666666667, V
114073, 316.86944444444447, N
114238, 317.3277777777778, V
114373, 317.7027777777778, +
114509, 318.0805555555556, N
114725, 318.68055555555554, N
114937, 319.26944444444445, N
115150, 319.8611111111111, N
115366, 320.4611111111111, N
115508, 320.85555555555555, V
115793, 321.64722222222224, N
116014, 322.2611111111111, N
116227, 322.85277777777776, N
116356, 323.2111111111111, V
116655, 324.0416666666667, N
116880, 324.6666666666667, N
117093, 325.2583333333333, N
117225, 325.625, V
117509, 326.4138888888889, N
117721, 327.0027777777778, N
117933, 327.59166666666664, N
118064, 327.9555555555556, V
118362, 328.78333333333336, N
118576, 329.3777777777778, N
118789, 329.96944444444443, N
118916, 330.3222222222222, V
119215, 331.15277777777777, N
119439, 331.775, N
119655, 332.375, N
119799, 332.775, V
120079, 333.5527777777778, N
120298, 334.1611111111111, N
120513, 334.7583333333333, N
120658, 335.1611111111111, V
120949, 335.96944444444443, N
121168, 336.5777777777778, N
121379, 337.1638888888889, N
121570, 337.69444444444446, V
121815, 338.375, N
122031, 338.975, N
122243, 339.56388888888887, N
122430, 340.0833333333333, V
122667, 340.7416666666667, N
122826, 341.18333333333334, V
122979, 341.60833333333335, V
123311, 342.53055555555557, N
123530, 343.1388888888889, N
123742, 343.72777777777776, N
123956, 344.3222222222222, N
124176, 344.93333333333334, N
124323, 345.34166666666664, V
124608, 346.1333333333333, N
124823, 346.73055555555555, N
125042, 347.3388888888889, N
125186, 347.7388888888889, V
125476, 348.5444444444444, N
125701, 349.1694444444444, N
125920, 349.77777777777777, N
126064, 350.1777777777778, V
126351, 350.975, N
126570, 351.5833333333333, N
126790, 352.19444444444446, N
127009, 352.8027777777778, N
127218, 353.3833333333333, N
127362, 353.78333333333336, V
127643, 354.56388888888887, N
127860, 355.1666666666667, N
128074, 355.7611111111111, N
128223, 356.175, V
128506, 356.9611111111111, N
128720, 357.55555555555554, N
128932, 358.14444444444445, N
129083, 358.56388888888887, V
129369, 359.35833333333335, N
129589, 359.96944444444443, N
129799, 360.5527777777778, N
129942, 360.95, V
130219, 361.71944444444443, N
130435, 362.31944444444446, N
130654, 362.9277777777778, N
130796, 363.3222222222222, V
131076, 364.1, N
131287, 364.68611111111113, N
131503, 365.2861111111111, N
131656, 365.7111111111111, V
131926, 366.4611111111111, N
132133, 367.0361111111111, N
132340, 367.6111111111111, N
132470, 367.97222222222223, V
132761, 368.78055555555557, N
132978, 369.3833333333333, N
133192, 369.97777777777776, N
133335, 370.375, V
133610, 371.1388888888889, N
133826, 371.7388888888889, N
134047, 372.35277777777776, N
134193, 372.7583333333333, V
134471, 373.53055555555557, N
134683, 374.11944444444447, N
134896, 374.7111111111111, N
135043, 375.11944444444447, V
135325, 375.90277777777777, N
135546, 376.51666666666665, N
135757, 377.10277777777776, N
135889, 377.46944444444443, V
136179, 378.275, N
136401, 378.89166666666665, N
136619, 379.4972222222222, N
136748, 379.85555555555555, V
137040, 380.6666666666667, N
137255, 381.2638888888889, N
137472, 381.8666666666667, N
137614, 382.2611111111111, V
137898, 383.05, N
138120, 383.6666666666667, N
138334, 384.2611111111111, N
138459, 384.60833333333335, V
138761, 385.4472222222222, N
138988, 386.0777777777778, N
139201, 386.6694444444444, N
139330, 387.02777777777777, V
139628, 387.85555555555555, N
139844, 388.4555555555556, N
140056, 389.0444444444444, N
140188, 389.4111111111111, V
140485, 390.2361111111111, N
140700, 390.8333333333333, N
140910, 391.4166666666667, N
141049, 391.8027777777778, V
141337, 392.60277777777776, N
141558, 393.21666666666664, N
141770, 393.80555555555554, N
141909, 394.19166666666666, V
142185, 394.9583333333333, N
142401, 395.55833333333334, N
142614, 396.15, N
142756, 396.5444444444444, V
143043, 397.34166666666664, N
143260, 397.94444444444446, N
143471, 398.53055555555557, N
143617, 398.93611111111113, V
143910, 399.75, N
144131, 400.3638888888889, N
144343, 400.9527777777778, N
144557, 401.5472222222222, N
144773, 402.14722222222224, N
144944, 402.6222222222222, V
145202, 403.3388888888889, N
145425, 403.9583333333333, N
145638, 404.55, N
145851, 405.14166666666665, N
145995, 405.5416666666667, V
146281, 406.3361111111111, N
146490, 406.9166666666667, V
146626, 407.2944444444444, V
146935, 408.15277777777777, N
147088, 408.5777777777778, V
147372, 409.3666666666667, N
147578, 409.93888888888887, V
147818, 410.60555555555555, N
148036, 411.2111111111111, N
148168, 411.5777777777778, V
148466, 412.40555555555557, N
148670, 412.97222222222223, V
148908, 413.6333333333333, N
149127, 414.2416666666667, N
149339, 414.8305555555556, N
149536, 415.3777777777778, V
149766, 416.01666666666665, N
149985, 416.625, N
150166, 417.1277777777778, V
150331, 417.5861111111111, V
150628, 418.4111111111111, N
150782, 418.8388888888889, V
151064, 419.6222222222222, N
151290, 420.25, N
151506, 420.85, N
151702, 421.39444444444445, V
151939, 422.0527777777778, N
152158, 422.6611111111111, N
152369, 423.2472222222222, N
152584, 423.84444444444443, N
152738, 424.27222222222224, V
153005, 425.0138888888889, N
153216, 425.6, N
153428, 426.18888888888887, N
153631, 426.7527777777778, V
153769, 427.1361111111111, V
154062, 427.95, N
154211, 428.3638888888889, V
154489, 429.1361111111111, N
154699, 429.71944444444443, N
154910, 430.30555555555554, N
155129, 430.9138888888889, N
155339, 431.4972222222222, N
155550, 432.0833333333333, N
155758, 432.6611111111111, N
155973, 433.2583333333333, N
156190, 433.8611111111111, N
156399, 434.44166666666666, N
156602, 435.00555555555553, N
156808, 435.5777777777778, N
157022, 436.1722222222222, N
157230, 436.75, N
157437, 437.325, N
157646, 437.90555555555557, N
157851, 438.475, N
158036, 438.9888888888889, V
158255, 439.59722222222223, N
158470, 440.19444444444446, N
158614, 440.59444444444443, V
158885, 441.34722222222223, N
159088, 441.9111111111111, N
159298, 442.49444444444447, N
159509, 443.0805555555556, N
159722, 443.6722222222222, N
159851, 444.03055555555557, V
160142, 444.8388888888889, N
160357, 445.43611111111113, N
160560, 446.0, N
160771, 446.5861111111111, N
160986, 447.18333333333334, N
161114, 447.5388888888889, V
161401, 448.3361111111111, N
161595, 448.875, F
161818, 449.49444444444447, N
162026, 450.0722222222222, N
162239, 450.6638888888889, N
162424, 451.1777777777778, V
162653, 451.81388888888887, F
162876, 452.43333333333334, N
163086, 453.01666666666665, N
163304, 453.6222222222222, N
163521, 454.225, N
163740, 454.8333333333333, N
163881, 455.225, V
164159, 455.9972222222222, N
164338, 456.49444444444447, V
164596, 457.2111111111111, N
164818, 457.8277777777778, N
165035, 458.43055555555554, N
165249, 459.025, N
165459, 459.60833333333335, N
165589, 459.96944444444443, V
165895, 460.81944444444446, N
166112, 461.4222222222222, N
166327, 462.01944444444445, N
166455, 462.375, V
166756, 463.2111111111111, N
166975, 463.81944444444446, N
167200, 464.44444444444446, N
167330, 464.80555555555554, V
167638, 465.6611111111111, N
167859, 466.275, N
168084, 466.9, N
168218, 467.27222222222224, V
168530, 468.1388888888889, N
168749, 468.7472222222222, N
168964, 469.34444444444443, N
169110, 469.75, V
169388, 470.52222222222224, N
169611, 471.14166666666665, N
169831, 471.7527777777778, N
169976, 472.15555555555557, V
170252, 472.9222222222222, N
170465, 473.5138888888889, N
170681, 474.1138888888889, N
170828, 474.52222222222224, V
171109, 475.3027777777778, N
171321, 475.89166666666665, N
171533, 476.48055555555555, N
171682, 476.89444444444445, V
171953, 477.64722222222224, N
172169, 478.2472222222222, N
172388, 478.85555555555555, N
172516, 479.2111111111111, V
172807, 480.01944444444445, N
173023, 480.61944444444447, N
173245, 481.2361111111111, N
173391, 481.64166666666665, V
173667, 482.40833333333336, N
173880, 483.0, N
174091, 483.5861111111111, N
174238, 483.99444444444447, V
174513, 484.7583333333333, N
174730, 485.3611111111111, N
174939, 485.94166666666666, N
175083, 486.34166666666664, V
175356, 487.1, N
175572, 487.7, N
175791, 488.30833333333334, N
175934, 488.7055555555556, V
176207, 489.4638888888889, N
176421, 490.05833333333334, N
176637, 490.65833333333336, N
176769, 491.025, V
177061, 491.8361111111111, N
177282, 492.45, N
177453, 492.925, V
177637, 493.43611111111113, V
177915, 494.2083333333333, N
178048, 494.5777777777778, V
178350, 495.4166666666667, N
178567, 496.01944444444445, N
178776, 496.6, N
178988, 497.18888888888887, N
179197, 497.76944444444445, N
179346, 498.18333333333334, V
179623, 498.9527777777778, N
179833, 499.5361111111111, N
180044, 500.1222222222222, N
180188, 500.52222222222224, V
180467, 501.2972222222222, N
180687, 501.90833333333336, N
180900, 502.5, N
181047, 502.90833333333336, V
181317, 503.65833333333336, N
181536, 504.26666666666665, N
181747, 504.85277777777776, N
181879, 505.21944444444443, V
182177, 506.0472222222222, N
182389, 506.6361111111111, N
182597, 507.2138888888889, N
182747, 507.63055555555553, V
183028, 508.4111111111111, N
183238, 508.99444444444447, N
183449, 509.5805555555556, N
183592, 509.97777777777776, V
183867, 510.7416666666667, N
184076, 511.3222222222222, N
184292, 511.9222222222222, N
184430, 512.3055555555555, V
184568, 512.6888888888889, V
184903, 513.6194444444444, N
185120, 514.2222222222222, N
185340, 514.8333333333334, N
185476, 515.2111111111111, V
185770, 516.0277777777778, N
185984, 516.6222222222223, N
186197, 517.2138888888888, N
186332, 517.5888888888888, V
186621, 518.3916666666667, N
186840, 519.0, N
187056, 519.6, N
187188, 519.9666666666667, V
187481, 520.7805555555556, N
187701, 521.3916666666667, N
187920, 522.0, N
188050, 522.3611111111111, V
188342, 523.1722222222222, N
188561, 523.7805555555556, N
188777, 524.3805555555556, N
188904, 524.7333333333333, V
189199, 525.5527777777778, N
189423, 526.175, N
189636, 526.7666666666667, N
189849, 527.3583333333333, N
190061, 527.9472222222222, N
190282, 528.5611111111111, N
190413, 528.925, V
190707, 529.7416666666667, N
190918, 530.3277777777778, N
191130, 530.9166666666666, N
191265, 531.2916666666666, V
191559, 532.1083333333333, N
191777, 532.7138888888888, N
191989, 533.3027777777778, N
192123, 533.675, V
192410, 534.4722222222222, N
192631, 535.0861111111111, N
192849, 535.6916666666667, N
192978, 536.05, V
193273, 536.8694444444444, N
193470, 537.4166666666666, V
193705, 538.0694444444445, N
193923, 538.675, N
194140, 539.2777777777778, N
194315, 539.7638888888889, V
194569, 540.4694444444444, N
194781, 541.0583333333333, N
194998, 541.6611111111112, N
195178, 542.1611111111112, V
195405, 542.7916666666666, V
195644, 543.4555555555555, N
195856, 544.0444444444445, N
196069, 544.6361111111111, N
196277, 545.2138888888888, N
196494, 545.8166666666667, N
196640, 546.2222222222222, V
196917, 546.9916666666667, N
197129, 547.5805555555555, N
197343, 548.175, N
197559, 548.775, N
197774, 549.3722222222223, N
197907, 549.7416666666667, V
198190, 550.5277777777778, N
198402, 551.1166666666667, N
198614, 551.7055555555555, N
198741, 552.0583333333333, V
199040, 552.8888888888889, N
199261, 553.5027777777777, N
199469, 554.0805555555555, N
199613, 554.4805555555556, V
199891, 555.2527777777777, N
200114, 555.8722222222223, N
200326, 556.4611111111111, N
200500, 556.9444444444445, V
200747, 557.6305555555556, N
200951, 558.1972222222222, N
201160, 558.7777777777778, N
201333, 559.2583333333333, V
201582, 559.95, N
201791, 560.5305555555556, N
201999, 561.1083333333333, N
202182, 561.6166666666667, V
202415, 562.2638888888889, N
202636, 562.8777777777777, N
202846, 563.4611111111111, N
203032, 563.9777777777778, V
203240, 564.5555555555555, V
203478, 565.2166666666667, N
203689, 565.8027777777778, N
203902, 566.3944444444444, N
204120, 567.0, N
204331, 567.5861111111111, N
204479, 567.9972222222223, V
204748, 568.7444444444444, N
204956, 569.3222222222222, V
205096, 569.7111111111111, V
205398, 570.55, N
205613, 571.1472222222222, N
205825, 571.7361111111111, N
205974, 572.15, V
206254, 572.9277777777778, N
206476, 573.5444444444445, N
206693, 574.1472222222222, N
206822, 574.5055555555556, V
207122, 575.3388888888888, N
207300, 575.8333333333334, V
207569, 576.5805555555555, N
207791, 577.1972222222222, N
208002, 577.7833333333333, N
208168, 578.2444444444444, V
208433, 578.9805555555556, N
208652, 579.5888888888888, N
208870, 580.1944444444445, N
209040, 580.6666666666666, V
209302, 581.3944444444444, N
209516, 581.9888888888889, N
209731, 582.5861111111111, N
209910, 583.0833333333334, V
210165, 583.7916666666666, N
210383, 584.3972222222222, N
210595, 584.9861111111111, N
210770, 585.4722222222222, V
211025, 586.1805555555555, N
211250, 586.8055555555555, N
211470, 587.4166666666666, N
211590, 587.75, +
211644, 587.9, V
211851, 588.475, V
211988, 588.8555555555556, V
212250, 589.5833333333334, +
212331, 589.8083333333333, N
212498, 590.2722222222222, V
212770, 591.0277777777778, N
212989, 591.6361111111111, N
213206, 592.2388888888889, N
213418, 592.8277777777778, N
213632, 593.4222222222222, N
213777, 593.825, V
214055, 594.5972222222222, N
214272, 595.2, N
214483, 595.7861111111112, N
214703, 596.3972222222222, N
214920, 597.0, N
215053, 597.3694444444444, V
215340, 598.1666666666666, N
215556, 598.7666666666667, N
215772, 599.3666666666667, N
215902, 599.7277777777778, V
216205, 600.5694444444445, N
216424, 601.1777777777778, N
216639, 601.775, N
216780, 602.1666666666666, V
217067, 602.9638888888888, N
217293, 603.5916666666667, N
217505, 604.1805555555555, N
217650, 604.5833333333334, V
217923, 605.3416666666667, N
218141, 605.9472222222222, N
218347, 606.5194444444444, N
218496, 606.9333333333333, V
218773, 607.7027777777778, N
218988, 608.3, N
219197, 608.8805555555556, N
219370, 609.3611111111111, V
219626, 610.0722222222222, N
219841, 610.6694444444445, N
219972, 611.0333333333333, V
220265, 611.8472222222222, N
220484, 612.4555555555555, N
220699, 613.0527777777778, N
220916, 613.6555555555556, N
221130, 614.25, N
221275, 614.6527777777778, V
221558, 615.4388888888889, N
221772, 616.0333333333333, N
221987, 616.6305555555556, N
222203, 617.2305555555556, N
222415, 617.8194444444445, N
222618, 618.3833333333333, N
222765, 618.7916666666666, V
222925, 619.2361111111111, V
223252, 620.1444444444444, N
223423, 620.6194444444444, V
223683, 621.3416666666667, N
223899, 621.9416666666667, N
224106, 622.5166666666667, N
224270, 622.9722222222222, V
224407, 623.3527777777778, V
224742, 624.2833333333333, N
224961, 624.8916666666667, N
225173, 625.4805555555556, N
225382, 626.0611111111111, N
225592, 626.6444444444444, N
225745, 627.0694444444445, V
226019, 627.8305555555555, N
226221, 628.3916666666667, V
226351, 628.7527777777777, V
226648, 629.5777777777778, N
226721, 629.7805555555556, +
226795, 629.9861111111111, V
227077, 630.7694444444444, N
227230, 631.1944444444445, V
227499, 631.9416666666667, N
227695, 632.4861111111111, V
227927, 633.1305555555556, N
228056, 633.4888888888889, V
228204, 633.9, +
228352, 634.3111111111111, N
228569, 634.9138888888889, N
228785, 635.5138888888889, N
228914, 635.8722222222223, V
229209, 636.6916666666667, N
229415, 637.2638888888889, F
229641, 637.8916666666667, N
229853, 638.4805555555556, N
230063, 639.0638888888889, N
230273, 639.6472222222222, N
230479, 640.2194444444444, N
230692, 640.8111111111111, N
230907, 641.4083333333333, N
231073, 641.8694444444444, V
231236, 642.3222222222222, V
231526, 643.1277777777777, N
231667, 643.5194444444444, V
231962, 644.3388888888888, N
232128, 644.8, V
232383, 645.5083333333333, N
232598, 646.1055555555556, N
232731, 646.475, V
233026, 647.2944444444445, N
233156, 647.6555555555556, V
233466, 648.5166666666667, N
233683, 649.1194444444444, N
233893, 649.7027777777778, N
234108, 650.3, N
234331, 650.9194444444445, N
234488, 651.3555555555556, V
234755, 652.0972222222222, N
234969, 652.6916666666667, N
235181, 653.2805555555556, N
235343, 653.7305555555556, V
235603, 654.4527777777778, N
235824, 655.0666666666667, N
236035, 655.6527777777778, N
236205, 656.125, V
236458, 656.8277777777778, N
236677, 657.4361111111111, N
236895, 658.0416666666666, N
237069, 658.525, V
237320, 659.2222222222222, N
237534, 659.8166666666667, N
237681, 660.225, V
237964, 661.0111111111111, N
238184, 661.6222222222223, N
238397, 662.2138888888888, N
238614, 662.8166666666667, N
238819, 663.3861111111111, N
239029, 663.9694444444444, N
239246, 664.5722222222222, N
239456, 665.1555555555556, N
239667, 665.7416666666667, N
239872, 666.3111111111111, N
240078, 666.8833333333333, N
240236, 667.3222222222222, V
240496, 668.0444444444445, N
240710, 668.6388888888889, N
240852, 669.0333333333333, V
241127, 669.7972222222222, N
241298, 670.2722222222222, V
241554, 670.9833333333333, N
241772, 671.5888888888888, N
241915, 671.9861111111111, V
242192, 672.7555555555556, N
242406, 673.35, N
242617, 673.9361111111111, N
242826, 674.5166666666667, N
243040, 675.1111111111111, N
243253, 675.7027777777778, N
243461, 676.2805555555556, N
243627, 676.7416666666667, V
243874, 677.4277777777778, N
244090, 678.0277777777778, N
244160, 678.2222222222222, +
244231, 678.4194444444445, V
244505, 679.1805555555555, N
244644, 679.5666666666667, V
244920, 680.3333333333334, N
245065, 680.7361111111111, V
245342, 681.5055555555556, N
245506, 681.9611111111111, V
245635, 682.3194444444445, +
245764, 682.6777777777778, N
245974, 683.2611111111111, N
246037, 683.4361111111111, +
246100, 683.6111111111111, V
246391, 684.4194444444445, N
246540, 684.8333333333334, V
246817, 685.6027777777778, N
246960, 686.0, V
247233, 686.7583333333333, N
247401, 687.225, V
247525, 687.5694444444445, +
247649, 687.9138888888889, N
247862, 688.5055555555556, N
247935, 688.7083333333334, +
248008, 688.9111111111112, V
248279, 689.6638888888889, N
248426, 690.0722222222222, V
248668, 690.7444444444444, N
248812, 691.1444444444444, V
249093, 691.925, N
249283, 692.4527777777778, V
249394, 692.7611111111111, +
249506, 693.0722222222222, N
249716, 693.6555555555556, N
249862, 694.0611111111111, V
250136, 694.8222222222222, N
250329, 695.3583333333333, V
250566, 696.0166666666667, N
250777, 696.6027777777778, N
250984, 697.1777777777778, N
251147, 697.6305555555556, V
251414, 698.3722222222223, N
251632, 698.9777777777778, N
251846, 699.5722222222222, N
252057, 700.1583333333333, N
252268, 700.7444444444444, N
252478, 701.3277777777778, N
252626, 701.7388888888889, V
252901, 702.5027777777777, N
253062, 702.95, V
253324, 703.6777777777778, N
253539, 704.275, N
253752, 704.8666666666667, N
253930, 705.3611111111111, V
254088, 705.8, V
254379, 706.6083333333333, N
254536, 707.0444444444445, V
254802, 707.7833333333333, N
255018, 708.3833333333333, N
255164, 708.7888888888889, V
255442, 709.5611111111111, N
255655, 710.1527777777778, N
255865, 710.7361111111111, N
256077, 711.325, N
256294, 711.9277777777778, N
256438, 712.3277777777778, V
256714, 713.0944444444444, N
256880, 713.5555555555555, V
257126, 714.2388888888889, N
257342, 714.8388888888888, N
257558, 715.4388888888889, N
257733, 715.925, V
257800, 716.1111111111111, |
257984, 716.6222222222223, N
258203, 717.2305555555556, N
258414, 717.8166666666667, N
258591, 718.3083333333333, V
258848, 719.0222222222222, N
259065, 719.625, N
259276, 720.2111111111111, N
259448, 720.6888888888889, V
259702, 721.3944444444444, N
259917, 721.9916666666667, N
260131, 722.5861111111111, N
260303, 723.0638888888889, V
260549, 723.7472222222223, N
260755, 724.3194444444445, N
260900, 724.7222222222222, V
261100, 725.2777777777778, |
261182, 725.5055555555556, N
261389, 726.0805555555555, N
261594, 726.65, N
261801, 727.225, N
262011, 727.8083333333333, N
262218, 728.3833333333333, N
262359, 728.775, V
262643, 729.5638888888889, N
262810, 730.0277777777778, V
263060, 730.7222222222222, N
263269, 731.3027777777778, N
263413, 731.7027777777778, V
263700, 732.5, N
263912, 733.0888888888888, N
264116, 733.6555555555556, N
264265, 734.0694444444445, V
264539, 734.8305555555555, N
264752, 735.4222222222222, N
264965, 736.0138888888889, N
265138, 736.4944444444444, V
265393, 737.2027777777778, N
265603, 737.7861111111112, N
265742, 738.1722222222222, V
266036, 738.9888888888889, N
266254, 739.5944444444444, N
266469, 740.1916666666667, N
266610, 740.5833333333334, V
266898, 741.3833333333333, N
267114, 741.9833333333333, N
267331, 742.5861111111111, N
267480, 743.0, V
267760, 743.7777777777778, N
267978, 744.3833333333333, N
268192, 744.9777777777778, N
268328, 745.3555555555556, V
268631, 746.1972222222222, N
268851, 746.8083333333333, N
269060, 747.3888888888889, N
269206, 747.7944444444445, V
269485, 748.5694444444445, N
269702, 749.1722222222222, N
269917, 749.7694444444444, N
270065, 750.1805555555555, V
270339, 750.9416666666667, N
270548, 751.5222222222222, N
270760, 752.1111111111111, N
270909, 752.525, V
271184, 753.2888888888889, N
271399, 753.8861111111111, N
271610, 754.4722222222222, N
271799, 754.9972222222223, V
272034, 755.65, N
272254, 756.2611111111111, N
272400, 756.6666666666666, V
272684, 757.4555555555555, N
272900, 758.0555555555555, N
273113, 758.6472222222222, N
273331, 759.2527777777777, N
273545, 759.8472222222222, N
273761, 760.4472222222222, N
273968, 761.0222222222222, N
274128, 761.4666666666667, V
274387, 762.1861111111111, N
274600, 762.7777777777778, N
274813, 763.3694444444444, N
274980, 763.8333333333334, V
275237, 764.5472222222222, N
275445, 765.125, N
275574, 765.4833333333333, V
275881, 766.3361111111111, N
276093, 766.925, N
276307, 767.5194444444444, N
276519, 768.1083333333333, N
276733, 768.7027777777778, N
276944, 769.2888888888889, N
277160, 769.8888888888889, N
277350, 770.4166666666666, V
277585, 771.0694444444445, N
277794, 771.65, N
277934, 772.0388888888889, V
278223, 772.8416666666667, N
278403, 773.3416666666667, V
278645, 774.0138888888889, N
278848, 774.5777777777778, N
278991, 774.975, V
279264, 775.7333333333333, N
279476, 776.3222222222222, N
279685, 776.9027777777778, N
279899, 777.4972222222223, N
280109, 778.0805555555555, N
280314, 778.65, N
280528, 779.2444444444444, N
280746, 779.85, N
280959, 780.4416666666667, N
281168, 781.0222222222222, N
281375, 781.5972222222222, N
281585, 782.1805555555555, N
281792, 782.7555555555556, N
282003, 783.3416666666667, N
282213, 783.925, N
282419, 784.4972222222223, N
282624, 785.0666666666667, N
282827, 785.6305555555556, N
283033, 786.2027777777778, N
283245, 786.7916666666666, N
283443, 787.3416666666667, V
283547, 787.6305555555556, V
283858, 788.4944444444444, N
284012, 788.9222222222222, V
284278, 789.6611111111112, N
284491, 790.2527777777777, N
284706, 790.85, N
284889, 791.3583333333333, V
285059, 791.8305555555555, V
285328, 792.5777777777778, N
285545, 793.1805555555555, N
285757, 793.7694444444444, N
285975, 794.375, N
286183, 794.9527777777778, N
286322, 795.3388888888888, V
286596, 796.1, N
286806, 796.6833333333333, N
287011, 797.2527777777777, N
287160, 797.6666666666666, V
287419, 798.3861111111111, N
287625, 798.9583333333334, N
287836, 799.5444444444445, N
288051, 800.1416666666667, N
288256, 800.7111111111111, N
288399, 801.1083333333333, V
288673, 801.8694444444444, N
288883, 802.4527777777778, N
289089, 803.025, N
289301, 803.6138888888889, N
289515, 804.2083333333334, N
289719, 804.775, N
289924, 805.3444444444444, N
290128, 805.9111111111112, N
290337, 806.4916666666667, N
290548, 807.0777777777778, N
290691, 807.475, V
290956, 808.2111111111111, N
291163, 808.7861111111112, N
291369, 809.3583333333333, N
291570, 809.9166666666666, N
291775, 810.4861111111111, N
291988, 811.0777777777778, N
292189, 811.6361111111111, N
292260, 811.8333333333334, +
292331, 812.0305555555556, V
292598, 812.7722222222222, N
292789, 813.3027777777778, V
293023, 813.9527777777778, N
293212, 814.4777777777778, V
293323, 814.7861111111112, +
293434, 815.0944444444444, N
293641, 815.6694444444445, N
293856, 816.2666666666667, N
294049, 816.8027777777778, V
294276, 817.4333333333333, N
294488, 818.0222222222222, N
294614, 818.3722222222223, V
294902, 819.1722222222222, N
295114, 819.7611111111111, N
295331, 820.3638888888889, N
295539, 820.9416666666667, N
295749, 821.525, N
295951, 822.0861111111111, N
296161, 822.6694444444445, N
296351, 823.1972222222222, V
296579, 823.8305555555555, N
296793, 824.425, N
296936, 824.8222222222222, V
297211, 825.5861111111111, N
297422, 826.1722222222222, N
297635, 826.7638888888889, N
297852, 827.3666666666667, N
298065, 827.9583333333334, N
298206, 828.35, V
298483, 829.1194444444444, N
298698, 829.7166666666667, N
298911, 830.3083333333333, N
299061, 830.725, V
299340, 831.5, N
299549, 832.0805555555555, N
299758, 832.6611111111112, N
299832, 832.8666666666667, +
299906, 833.0722222222222, V
300177, 833.825, N
300321, 834.225, V
300603, 835.0083333333333, N
300760, 835.4444444444445, V
300890, 835.8055555555555, +
301021, 836.1694444444445, N
301235, 836.7638888888889, N
301366, 837.1277777777777, V
301541, 837.6138888888889, V
301875, 838.5416666666666, N
302091, 839.1416666666667, N
302297, 839.7138888888888, N
302442, 840.1166666666667, V
302726, 840.9055555555556, N
302940, 841.5, N
303148, 842.0777777777778, N
303357, 842.6583333333333, N
303569, 843.2472222222223, N
303695, 843.5972222222222, V
303988, 844.4111111111112, N
304205, 845.0138888888889, N
304410, 845.5833333333334, N
304614, 846.15, N
304822, 846.7277777777778, N
305032, 847.3111111111111, N
305133, 847.5916666666667, +
305235, 847.875, V
305455, 848.4861111111111, N
305591, 848.8638888888889, V
305863, 849.6194444444444, N
306035, 850.0972222222222, V
306279, 850.775, N
306417, 851.1583333333333, V
306704, 851.9555555555555, N
306856, 852.3777777777777, V
306985, 852.7361111111111, +
307115, 853.0972222222222, N
307326, 853.6833333333333, N
307400, 853.8888888888889, +
307474, 854.0944444444444, V
307749, 854.8583333333333, N
307892, 855.2555555555556, V
308165, 856.0138888888889, N
308321, 856.4472222222222, V
308451, 856.8083333333333, +
308581, 857.1694444444445, N
308796, 857.7666666666667, N
309007, 858.3527777777778, N
309177, 858.825, V
309427, 859.5194444444444, N
309628, 860.0777777777778, F
309702, 860.2833333333333, +
309777, 860.4916666666667, V
310061, 861.2805555555556, N
310207, 861.6861111111111, V
310477, 862.4361111111111, N
310624, 862.8444444444444, V
310896, 863.6, N
311062, 864.0611111111111, V
311190, 864.4166666666666, +
311319, 864.775, N
311535, 865.375, N
311678, 865.7722222222222, V
311951, 866.5305555555556, N
312140, 867.0555555555555, V
312378, 867.7166666666667, N
312593, 868.3138888888889, N
312664, 868.5111111111111, +
312736, 868.7111111111111, V
313008, 869.4666666666667, N
313152, 869.8666666666667, V
313431, 870.6416666666667, N
313582, 871.0611111111111, V
313722, 871.45, +
313862, 871.8388888888888, N
314077, 872.4361111111111, N
314219, 872.8305555555555, V
314495, 873.5972222222222, N
314690, 874.1388888888889, V
314927, 874.7972222222222, N
315141, 875.3916666666667, N
315213, 875.5916666666667, +
315286, 875.7944444444445, V
315562, 876.5611111111111, N
315706, 876.9611111111111, V
315986, 877.7388888888889, N
316137, 878.1583333333333, V
316420, 878.9444444444445, N
316564, 879.3444444444444, V
316702, 879.7277777777778, +
316841, 880.1138888888889, N
317055, 880.7083333333334, N
317272, 881.3111111111111, N
317444, 881.7888888888889, V
317697, 882.4916666666667, N
317909, 883.0805555555555, N
318118, 883.6611111111112, N
318290, 884.1388888888889, V
318538, 884.8277777777778, N
318749, 885.4138888888889, N
318893, 885.8138888888889, V
319161, 886.5583333333333, N
319302, 886.95, V
319585, 887.7361111111111, N
319809, 888.3583333333333, N
320017, 888.9361111111111, N
320229, 889.525, N
320439, 890.1083333333333, N
320572, 890.4777777777778, V
320857, 891.2694444444444, N
321073, 891.8694444444444, N
321289, 892.4694444444444, N
321434, 892.8722222222223, V
321702, 893.6166666666667, N
321915, 894.2083333333334, N
322133, 894.8138888888889, N
322301, 895.2805555555556, V
322550, 895.9722222222222, N
322759, 896.5527777777778, N
322968, 897.1333333333333, N
323138, 897.6055555555556, V
323317, 898.1027777777778, V
323602, 898.8944444444444, N
323775, 899.375, V
324027, 900.075, N
324235, 900.6527777777778, N
324444, 901.2333333333333, N
324619, 901.7194444444444, V
324864, 902.4, N
325071, 902.975, N
325275, 903.5416666666666, N
325442, 904.0055555555556, V
325684, 904.6777777777778, N
325890, 905.25, N
326036, 905.6555555555556, V
326300, 906.3888888888889, N
326490, 906.9166666666666, V
326713, 907.5361111111112, N
326923, 908.1194444444444, N
327070, 908.5277777777778, V
327340, 909.2777777777778, N
327501, 909.725, V
327746, 910.4055555555556, N
327961, 911.0027777777777, N
328168, 911.5777777777778, N
328381, 912.1694444444445, N
328591, 912.7527777777777, N
328795, 913.3194444444445, N
329001, 913.8916666666667, N
329204, 914.4555555555555, N
329417, 915.0472222222222, N
329624, 915.6222222222223, N
329831, 916.1972222222222, N
330032, 916.7555555555556, N
330233, 917.3138888888889, N
330438, 917.8833333333333, N
330641, 918.4472222222222, N
330848, 919.0222222222222, N
330996, 919.4333333333333, V
331253, 920.1472222222222, N
331456, 920.7111111111111, N
331660, 921.2777777777778, N
331796, 921.6555555555556, V
332070, 922.4166666666666, N
332215, 922.8194444444445, V
332480, 923.5555555555555, N
332686, 924.1277777777777, N
332889, 924.6916666666667, N
333025, 925.0694444444445, V
333302, 925.8388888888888, N
333451, 926.2527777777777, V
333710, 926.9722222222222, N
333911, 927.5305555555556, N
334116, 928.1, N
334326, 928.6833333333333, N
334528, 929.2444444444444, N
334655, 929.5972222222222, V
334927, 930.3527777777778, N
335056, 930.7111111111111, V
335332, 931.4777777777778, N
335538, 932.05, N
335747, 932.6305555555556, N
335952, 933.2, N
336156, 933.7666666666667, N
336353, 934.3138888888889, N
336562, 934.8944444444444, N
336776, 935.4888888888889, N
336981, 936.0583333333333, N
337186, 936.6277777777777, N
337388, 937.1888888888889, N
337593, 937.7583333333333, N
337743, 938.175, V
338001, 938.8916666666667, N
338207, 939.4638888888888, N
338411, 940.0305555555556, N
338546, 940.4055555555556, V
338814, 941.15, N
339020, 941.7222222222222, N
339230, 942.3055555555555, N
339372, 942.7, V
339637, 943.4361111111111, N
339840, 944.0, N
340045, 944.5694444444445, N
340247, 945.1305555555556, N
340455, 945.7083333333334, N
340659, 946.275, N
340866, 946.85, N
341070, 947.4166666666666, F
341274, 947.9833333333333, N
341481, 948.5583333333333, N
341612, 948.9222222222222, V
341894, 949.7055555555555, N
342097, 950.2694444444444, N
342297, 950.825, N
342499, 951.3861111111111, N
342702, 951.95, N
342909, 952.525, N
343109, 953.0805555555555, N
343314, 953.65, N
343517, 954.2138888888888, N
343715, 954.7638888888889, N
343918, 955.3277777777778, N
344123, 955.8972222222222, N
344325, 956.4583333333334, N
344528, 957.0222222222222, N
344727, 957.575, N
344927, 958.1305555555556, N
345128, 958.6888888888889, N
345272, 959.0888888888888, V
345538, 959.8277777777778, N
345745, 960.4027777777778, N
345949, 960.9694444444444, N
346149, 961.525, N
346351, 962.0861111111111, N
346559, 962.6638888888889, N
346761, 963.225, N
346965, 963.7916666666666, N
347166, 964.35, N
347367, 964.9083333333333, N
347514, 965.3166666666667, V
347771, 966.0305555555556, N
347916, 966.4333333333333, V
348184, 967.1777777777778, N
348331, 967.5861111111111, V
348442, 967.8944444444444, V
348779, 968.8305555555555, N
348996, 969.4333333333333, N
349201, 970.0027777777777, N
349408, 970.5777777777778, N
349613, 971.1472222222222, N
349819, 971.7194444444444, N
350026, 972.2944444444445, N
350236, 972.8777777777777, N
350446, 973.4611111111111, N
350653, 974.0361111111112, N
350859, 974.6083333333333, N
351062, 975.1722222222222, N
351271, 975.7527777777777, N
351487, 976.3527777777778, N
351691, 976.9194444444445, N
351830, 977.3055555555555, V
352097, 978.0472222222222, N
352265, 978.5138888888889, V
352514, 979.2055555555555, N
352727, 979.7972222222222, N
352943, 980.3972222222222, N
353148, 980.9666666666667, N
353293, 981.3694444444444, V
353555, 982.0972222222222, N
353756, 982.6555555555556, V
353985, 983.2916666666666, N
354195, 983.875, N
354333, 984.2583333333333, V
354602, 985.0055555555556, N
354777, 985.4916666666667, V
354902, 985.8388888888888, V
355224, 986.7333333333333, N
355440, 987.3333333333334, N
355648, 987.9111111111112, N
355788, 988.3, V
356061, 989.0583333333333, N
356238, 989.55, V
356488, 990.2444444444444, N
356701, 990.8361111111111, N
356839, 991.2194444444444, V
357113, 991.9805555555556, N
357299, 992.4972222222223, V
357539, 993.1638888888889, N
357755, 993.7638888888889, N
357895, 994.1527777777778, V
358170, 994.9166666666666, N
358312, 995.3111111111111, V
358594, 996.0944444444444, N
358813, 996.7027777777778, N
359024, 997.2888888888889, N
359232, 997.8666666666667, N
359440, 998.4444444444445, N
359507, 998.6305555555556, +
359575, 998.8194444444445, V
359858, 999.6055555555556, N
360003, 1000.0083333333333, V
360290, 1000.8055555555555, N
360441, 1001.225, V
360575, 1001.5972222222222, +
360709, 1001.9694444444444, N
360924, 1002.5666666666667, N
361142, 1003.1722222222222, N
361300, 1003.6111111111111, V
361561, 1004.3361111111111, N
361772, 1004.9222222222222, N
361980, 1005.5, N
362139, 1005.9416666666667, V
362398, 1006.6611111111112, N
362616, 1007.2666666666667, N
362757, 1007.6583333333333, V
363031, 1008.4194444444445, N
363171, 1008.8083333333333, V
363456, 1009.6, N
363674, 1010.2055555555555, N
363881, 1010.7805555555556, N
364022, 1011.1722222222222, V
364294, 1011.9277777777778, N
364511, 1012.5305555555556, N
364716, 1013.1, N
364863, 1013.5083333333333, V
365140, 1014.2777777777778, N
365349, 1014.8583333333333, N
365554, 1015.4277777777778, N
365685, 1015.7916666666666, V
365977, 1016.6027777777778, N
366188, 1017.1888888888889, N
366397, 1017.7694444444444, N
366524, 1018.1222222222223, V
366809, 1018.9138888888889, N
367022, 1019.5055555555556, N
367234, 1020.0944444444444, N
367446, 1020.6833333333333, N
367656, 1021.2666666666667, N
367803, 1021.675, V
368068, 1022.4111111111112, N
368281, 1023.0027777777777, N
368497, 1023.6027777777778, N
368707, 1024.1861111111111, N
368913, 1024.7583333333334, N
369057, 1025.1583333333333, V
369324, 1025.9, N
369478, 1026.3277777777778, V
369738, 1027.05, N
369949, 1027.6361111111112, N
370156, 1028.2111111111112, N
370362, 1028.7833333333333, N
370570, 1029.361111111111, N
370717, 1029.7694444444444, V
370993, 1030.536111111111, N
371205, 1031.125, N
371406, 1031.6833333333334, N
371558, 1032.1055555555556, A
371797, 1032.7694444444444, N
372007, 1033.3527777777779, N
372153, 1033.7583333333334, V
372425, 1034.513888888889, N
372577, 1034.9361111111111, V
372841, 1035.6694444444445, N
373054, 1036.2611111111112, N
373264, 1036.8444444444444, N
373419, 1037.275, V
373678, 1037.9944444444445, N
373883, 1038.5638888888889, N
374088, 1039.1333333333334, N
374248, 1039.5777777777778, V
374500, 1040.2777777777778, N
374711, 1040.8638888888888, N
374919, 1041.4416666666666, N
375089, 1041.9138888888888, V
375323, 1042.5638888888889, N
375532, 1043.1444444444444, N
375677, 1043.5472222222222, V
375949, 1044.3027777777777, N
376161, 1044.8916666666667, N
376364, 1045.4555555555555, N
376569, 1046.025, N
376774, 1046.5944444444444, N
376916, 1046.9888888888888, V
377192, 1047.7555555555555, N
377357, 1048.213888888889, V
377609, 1048.9138888888888, N
377811, 1049.475, N
377952, 1049.8666666666666, V
378225, 1050.625, N
378409, 1051.1361111111112, V
378636, 1051.7666666666667, N
378840, 1052.3333333333333, N
378982, 1052.7277777777779, V
379248, 1053.4666666666667, N
379420, 1053.9444444444443, V
379660, 1054.611111111111, N
379867, 1055.1861111111111, N
379996, 1055.5444444444445, V
380273, 1056.3138888888889, N
380418, 1056.7166666666667, V
380699, 1057.4972222222223, N
380907, 1058.075, N
381112, 1058.6444444444444, N
381321, 1059.225, N
381529, 1059.8027777777777, N
381673, 1060.2027777777778, V
381941, 1060.9472222222223, N
382156, 1061.5444444444445, N
382361, 1062.1138888888888, N
382513, 1062.536111111111, V
382769, 1063.2472222222223, N
382982, 1063.838888888889, N
383195, 1064.4305555555557, N
383403, 1065.0083333333334, N
383606, 1065.5722222222223, N
383737, 1065.9361111111111, V
383988, 1066.6333333333334, N
384201, 1067.225, N
384413, 1067.8138888888889, N
384629, 1068.4138888888888, N
384836, 1068.9888888888888, N
384984, 1069.4, V
385249, 1070.1361111111112, N
385407, 1070.575, V
385678, 1071.3277777777778, N
385893, 1071.925, N
386099, 1072.4972222222223, N
386304, 1073.0666666666666, N
386515, 1073.6527777777778, N
386724, 1074.2333333333333, N
386935, 1074.8194444444443, N
387142, 1075.3944444444444, N
387286, 1075.7944444444445, V
387532, 1076.4777777777779, N
387718, 1076.9944444444445, V
387962, 1077.6722222222222, N
388173, 1078.2583333333334, N
388384, 1078.8444444444444, N
388539, 1079.275, V
388672, 1079.6444444444444, V
389002, 1080.5611111111111, N
389172, 1081.0333333333333, V
389436, 1081.7666666666667, N
389646, 1082.35, N
389857, 1082.9361111111111, N
390068, 1083.5222222222221, N
390283, 1084.1194444444445, N
390432, 1084.5333333333333, V
390702, 1085.2833333333333, N
390909, 1085.8583333333333, N
391117, 1086.4361111111111, N
391265, 1086.8472222222222, A
391501, 1087.5027777777777, N
391719, 1088.1083333333333, N
391935, 1088.7083333333333, N
392086, 1089.1277777777777, V
392349, 1089.8583333333333, N
392561, 1090.4472222222223, N
392781, 1091.0583333333334, N
392945, 1091.513888888889, V
393204, 1092.2333333333333, N
393417, 1092.825, N
393626, 1093.4055555555556, N
393789, 1093.8583333333333, V
394044, 1094.5666666666666, N
394262, 1095.1722222222222, N
394401, 1095.5583333333334, A
394644, 1096.2333333333333, N
394852, 1096.8111111111111, N
395064, 1097.4, N
395281, 1098.0027777777777, N
395485, 1098.5694444444443, N
395691, 1099.1416666666667, N
395834, 1099.5388888888888, V
396102, 1100.2833333333333, N
396311, 1100.8638888888888, N
396520, 1101.4444444444443, N
396673, 1101.8694444444445, V
396938, 1102.6055555555556, N
397151, 1103.1972222222223, N
397256, 1103.4888888888888, V
397570, 1104.361111111111, N
397787, 1104.963888888889, N
397999, 1105.5527777777777, N
398071, 1105.7527777777777, +
398143, 1105.9527777777778, V
398408, 1106.6888888888889, N
398555, 1107.0972222222222, V
398833, 1107.8694444444445, N
398988, 1108.3, V
399121, 1108.6694444444445, +
399255, 1109.0416666666667, N
399467, 1109.6305555555555, N
399672, 1110.2, N
399881, 1110.7805555555556, N
400095, 1111.375, N
400237, 1111.7694444444444, V
400512, 1112.5333333333333, N
400722, 1113.1166666666666, N
400929, 1113.6916666666666, N
401136, 1114.2666666666667, N
401349, 1114.8583333333333, N
401563, 1115.4527777777778, N
401768, 1116.0222222222221, N
401977, 1116.6027777777779, N
402179, 1117.1638888888888, N
402324, 1117.5666666666666, V
402597, 1118.325, N
402807, 1118.9083333333333, N
403012, 1119.4777777777779, N
403215, 1120.0416666666667, N
403422, 1120.6166666666666, N
403562, 1121.0055555555555, V
403831, 1121.7527777777777, N
404044, 1122.3444444444444, N
404246, 1122.9055555555556, N
404449, 1123.4694444444444, N
404654, 1124.0388888888888, N
404866, 1124.6277777777777, N
405077, 1125.213888888889, N
405284, 1125.7888888888888, N
405485, 1126.3472222222222, N
405633, 1126.7583333333334, V
405899, 1127.4972222222223, N
406078, 1127.9944444444445, V
406316, 1128.6555555555556, N
406531, 1129.2527777777777, N
406737, 1129.825, N
406940, 1130.388888888889, N
407102, 1130.838888888889, V
407280, 1131.3333333333333, V
407572, 1132.1444444444444, N
407745, 1132.625, V
407987, 1133.2972222222222, N
408166, 1133.7944444444445, V
408402, 1134.45, N
408613, 1135.036111111111, N
408755, 1135.4305555555557, V
409034, 1136.2055555555555, N
409217, 1136.713888888889, V
409449, 1137.3583333333333, N
409662, 1137.95, N
409878, 1138.55, N
410086, 1139.1277777777777, N
410295, 1139.7083333333333, N
410504, 1140.2888888888888, N
410645, 1140.6805555555557, V
410917, 1141.4361111111111, N
411084, 1141.9, V
411341, 1142.6138888888888, N
411555, 1143.2083333333333, N
411764, 1143.7888888888888, N
411970, 1144.361111111111, N
412179, 1144.9416666666666, N
412329, 1145.3583333333333, V
412599, 1146.1083333333333, N
412806, 1146.6833333333334, N
413012, 1147.2555555555555, N
413225, 1147.8472222222222, N
413433, 1148.425, N
413580, 1148.8333333333333, V
413749, 1149.3027777777777, V
414057, 1150.1583333333333, N
414213, 1150.5916666666667, V
414475, 1151.3194444444443, N
414691, 1151.9194444444445, N
414903, 1152.5083333333334, N
415112, 1153.088888888889, N
415317, 1153.6583333333333, N
415523, 1154.2305555555556, N
415672, 1154.6444444444444, V
415943, 1155.3972222222221, N
416123, 1155.8972222222221, V
416365, 1156.5694444444443, N
416575, 1157.1527777777778, N
416780, 1157.7222222222222, N
416935, 1158.1527777777778, V
417072, 1158.5333333333333, V
417397, 1159.4361111111111, N
417562, 1159.8944444444444, V
417817, 1160.6027777777779, N
418027, 1161.1861111111111, N
418168, 1161.5777777777778, V
418441, 1162.3361111111112, N
418629, 1162.8583333333333, V
418864, 1163.5111111111112, N
419072, 1164.088888888889, N
419214, 1164.4833333333333, V
419488, 1165.2444444444445, N
419680, 1165.7777777777778, V
419820, 1166.1666666666667, V
420116, 1166.9888888888888, N
420327, 1167.575, N
420539, 1168.1638888888888, N
420732, 1168.7, V
420958, 1169.3277777777778, N
421173, 1169.925, N
421310, 1170.3055555555557, V
421580, 1171.0555555555557, N
421764, 1171.5666666666666, V
422011, 1172.2527777777777, N
422222, 1172.838888888889, N
422293, 1173.036111111111, +
422364, 1173.2333333333333, V
422633, 1173.9805555555556, N
422818, 1174.4944444444445, V
423049, 1175.1361111111112, N
423213, 1175.5916666666667, V
423342, 1175.95, +
423472, 1176.3111111111111, N
423682, 1176.8944444444444, N
423827, 1177.2972222222222, V
424092, 1178.0333333333333, N
424307, 1178.6305555555555, N
424525, 1179.236111111111, N
424670, 1179.638888888889, V
424937, 1180.3805555555555, N
425148, 1180.9666666666667, N
425363, 1181.5638888888889, N
425504, 1181.9555555555555, V
425778, 1182.7166666666667, N
425998, 1183.3277777777778, N
426207, 1183.9083333333333, N
426352, 1184.3111111111111, V
426623, 1185.0638888888889, N
426844, 1185.6777777777777, N
427056, 1186.2666666666667, N
427203, 1186.675, V
427477, 1187.4361111111111, N
427689, 1188.025, N
427901, 1188.6138888888888, N
428048, 1189.0222222222221, V
428332, 1189.8111111111111, N
428543, 1190.3972222222221, N
428754, 1190.9833333333333, N
428899, 1191.3861111111112, V
429177, 1192.1583333333333, N
429397, 1192.7694444444444, N
429606, 1193.35, N
429748, 1193.7444444444445, V
430014, 1194.4833333333333, N
430200, 1195.0, V
430436, 1195.6555555555556, N
430652, 1196.2555555555555, N
430861, 1196.8361111111112, N
431014, 1197.2611111111112, V
431273, 1197.9805555555556, N
431484, 1198.5666666666666, N
431698, 1199.161111111111, N
431902, 1199.7277777777779, N
432114, 1200.3166666666666, N
432320, 1200.888888888889, N
432526, 1201.4611111111112, N
432730, 1202.0277777777778, N
432939, 1202.6083333333333, N
433151, 1203.1972222222223, N
433356, 1203.7666666666667, N
433563, 1204.3416666666667, N
433764, 1204.9, N
433973, 1205.4805555555556, N
434184, 1206.0666666666666, N
434388, 1206.6333333333334, N
434592, 1207.2, N
434796, 1207.7666666666667, N
435005, 1208.3472222222222, N
435208, 1208.911111111111, N
435355, 1209.3194444444443, V
435626, 1210.0722222222223, N
435835, 1210.6527777777778, N
436046, 1211.2388888888888, N
436188, 1211.6333333333334, V
436468, 1212.411111111111, N
436625, 1212.8472222222222, V
436901, 1213.6138888888888, N
437110, 1214.1944444444443, N
437320, 1214.7777777777778, N
437537, 1215.3805555555555, N
437704, 1215.8444444444444, V
437958, 1216.55, N
438173, 1217.1472222222221, N
438382, 1217.7277777777779, N
438530, 1218.138888888889, V
438794, 1218.8722222222223, N
439015, 1219.486111111111, N
439227, 1220.075, N
439440, 1220.6666666666667, N
439644, 1221.2333333333333, N
439786, 1221.6277777777777, V
440064, 1222.4, N
440285, 1223.013888888889, N
440494, 1223.5944444444444, N
440639, 1223.9972222222223, V
440912, 1224.7555555555555, N
441121, 1225.3361111111112, N
441333, 1225.925, N
441484, 1226.3444444444444, V
441757, 1227.1027777777779, N
441941, 1227.6138888888888, V
442177, 1228.2694444444444, N
442392, 1228.8666666666666, N
442600, 1229.4444444444443, N
442812, 1230.0333333333333, N
442961, 1230.4472222222223, V
443233, 1231.2027777777778, N
443447, 1231.7972222222222, N
443659, 1232.3861111111112, N
443806, 1232.7944444444445, V
444084, 1233.5666666666666, N
444301, 1234.1694444444445, N
444509, 1234.7472222222223, N
444652, 1235.1444444444444, V
444931, 1235.9194444444445, N
445105, 1236.4027777777778, V
445369, 1237.1361111111112, N
445584, 1237.7333333333333, N
445796, 1238.3222222222223, N
445944, 1238.7333333333333, V
446148, 1239.3, V
446440, 1240.111111111111, N
446586, 1240.5166666666667, V
446732, 1240.9222222222222, V
447056, 1241.8222222222223, N
447274, 1242.4277777777777, N
447486, 1243.0166666666667, N
447701, 1243.6138888888888, N
447918, 1244.2166666666667, N
448060, 1244.611111111111, V
448330, 1245.361111111111, N
448545, 1245.9583333333333, N
448766, 1246.5722222222223, N
448911, 1246.975, V
449191, 1247.7527777777777, N
449409, 1248.3583333333333, N
449623, 1248.9527777777778, N
449768, 1249.3555555555556, V
450048, 1250.1333333333334, N
450271, 1250.7527777777777, N
450484, 1251.3444444444444, N
450616, 1251.7111111111112, V
450907, 1252.5194444444444, N
451110, 1253.0833333333333, N
451336, 1253.7111111111112, N
451546, 1254.2944444444445, N
451750, 1254.861111111111, N
451958, 1255.4388888888889, N
452174, 1256.0388888888888, N
452385, 1256.625, N
452595, 1257.2083333333333, N
452747, 1257.6305555555555, V
453020, 1258.388888888889, N
453232, 1258.9777777777779, N
453446, 1259.5722222222223, N
453582, 1259.95, V
453882, 1260.7833333333333, N
454100, 1261.388888888889, N
454310, 1261.9722222222222, N
454435, 1262.3194444444443, V
454737, 1263.1583333333333, N
454958, 1263.7722222222221, N
455180, 1264.388888888889, N
455392, 1264.9777777777779, N
455606, 1265.5722222222223, N
455820, 1266.1666666666667, N
456039, 1266.775, N
456184, 1267.1777777777777, V
456467, 1267.963888888889, N
456682, 1268.5611111111111, N
456894, 1269.15, N
457037, 1269.5472222222222, V
457328, 1270.3555555555556, N
457552, 1270.9777777777779, N
457767, 1271.575, N
457911, 1271.975, V
458199, 1272.775, N
458427, 1273.4083333333333, N
458647, 1274.0194444444444, N
458792, 1274.4222222222222, V
459076, 1275.2111111111112, N
459291, 1275.8083333333334, N
459507, 1276.4083333333333, N
459651, 1276.8083333333334, V
459943, 1277.6194444444445, N
460160, 1278.2222222222222, N
460376, 1278.8222222222223, N
460516, 1279.2111111111112, V
460806, 1280.0166666666667, N
461031, 1280.6416666666667, N
461248, 1281.2444444444445, N
461392, 1281.6444444444444, V
461675, 1282.4305555555557, N
461891, 1283.0305555555556, N
462108, 1283.6333333333334, N
462237, 1283.9916666666666, V
462543, 1284.8416666666667, N
462760, 1285.4444444444443, N
462970, 1286.0277777777778, N
463119, 1286.4416666666666, V
463406, 1287.2388888888888, N
463618, 1287.8277777777778, N
463824, 1288.4, N
463969, 1288.8027777777777, V
464248, 1289.5777777777778, N
464462, 1290.1722222222222, N
464674, 1290.7611111111112, N
464825, 1291.1805555555557, V
465101, 1291.9472222222223, N
465315, 1292.5416666666667, N
465527, 1293.1305555555555, N
465678, 1293.55, V
465958, 1294.3277777777778, N
466173, 1294.925, N
466384, 1295.5111111111112, N
466527, 1295.9083333333333, V
466810, 1296.6944444444443, N
467028, 1297.3, N
467247, 1297.9083333333333, N
467388, 1298.3, V
467668, 1299.0777777777778, N
467881, 1299.6694444444445, N
468097, 1300.2694444444444, N
468250, 1300.6944444444443, V
468525, 1301.4583333333333, N
468735, 1302.0416666666667, N
468944, 1302.6222222222223, N
469097, 1303.0472222222222, V
469369, 1303.8027777777777, N
469586, 1304.4055555555556, N
469797, 1304.9916666666666, N
469946, 1305.4055555555556, V
470218, 1306.161111111111, N
470435, 1306.763888888889, N
470652, 1307.3666666666666, N
470798, 1307.7722222222221, V
471078, 1308.55, N
471291, 1309.1416666666667, N
471502, 1309.7277777777779, N
471647, 1310.1305555555555, V
471923, 1310.8972222222221, N
472144, 1311.5111111111112, N
472351, 1312.0861111111112, N
472500, 1312.5, V
472770, 1313.25, N
472990, 1313.861111111111, N
473202, 1314.45, N
473355, 1314.875, V
473622, 1315.6166666666666, N
473836, 1316.2111111111112, N
474046, 1316.7944444444445, N
474240, 1317.3333333333333, V
474476, 1317.9888888888888, N
474690, 1318.5833333333333, N
474900, 1319.1666666666667, N
475087, 1319.6861111111111, V
475217, 1320.0472222222222, V
475544, 1320.9555555555555, N
475674, 1321.3166666666666, V
475964, 1322.1222222222223, N
476180, 1322.7222222222222, N
476392, 1323.3111111111111, N
476577, 1323.825, V
476812, 1324.4777777777779, N
477031, 1325.0861111111112, N
477239, 1325.6638888888888, N
477410, 1326.138888888889, V
477556, 1326.5444444444445, V
477869, 1327.4138888888888, N
478034, 1327.8722222222223, V
478295, 1328.5972222222222, N
478497, 1329.1583333333333, N
478704, 1329.7333333333333, N
478912, 1330.3111111111111, N
479119, 1330.8861111111112, N
479267, 1331.2972222222222, V
479538, 1332.05, N
479750, 1332.638888888889, N
479953, 1333.2027777777778, N
480152, 1333.7555555555555, V
480291, 1334.1416666666667, V
480582, 1334.95, N
480737, 1335.3805555555555, V
480992, 1336.088888888889, N
481185, 1336.625, V
481401, 1337.225, N
481608, 1337.8, N
481810, 1338.361111111111, N
481986, 1338.85, V
482218, 1339.4944444444445, N
482416, 1340.0444444444445, N
482619, 1340.6083333333333, N
482800, 1341.111111111111, V
482948, 1341.5222222222221, V
483229, 1342.3027777777777, N
483430, 1342.861111111111, N
483630, 1343.4166666666667, N
483830, 1343.9722222222222, N
484007, 1344.463888888889, V
484157, 1344.8805555555555, V
484446, 1345.6833333333334, N
484652, 1346.2555555555555, N
484818, 1346.7166666666667, V
485053, 1347.3694444444445, N
485261, 1347.9472222222223, N
485343, 1348.175, +
485406, 1348.35, V
485582, 1348.838888888889, V
485722, 1349.2277777777779, V
485991, 1349.975, +
486056, 1350.1555555555556, N
486227, 1350.6305555555555, V
486385, 1351.0694444444443, V
486675, 1351.875, N
486760, 1352.111111111111, +
486823, 1352.286111111111, V
487044, 1352.9, V
487200, 1353.3333333333333, V
487422, 1353.95, +
487495, 1354.1527777777778, N
487658, 1354.6055555555556, V
487917, 1355.325, N
488124, 1355.9, N
488327, 1356.463888888889, N
488531, 1357.0305555555556, N
488672, 1357.4222222222222, V
488940, 1358.1666666666667, N
489153, 1358.7583333333334, V
489313, 1359.2027777777778, V
489560, 1359.888888888889, N
489767, 1360.463888888889, N
489976, 1361.0444444444445, N
490166, 1361.5722222222223, V
490391, 1362.1972222222223, N
490591, 1362.7527777777777, N
490739, 1363.1638888888888, V
491000, 1363.888888888889, N
491205, 1364.4583333333333, N
491412, 1365.0333333333333, N
491563, 1365.4527777777778, V
491826, 1366.1833333333334, N
492031, 1366.7527777777777, N
492237, 1367.325, N
492319, 1367.5527777777777, +
492386, 1367.7388888888888, V
492594, 1368.3166666666666, V
492720, 1368.6666666666667, V
492965, 1369.3472222222222, +
493052, 1369.588888888889, N
493266, 1370.1833333333334, N
493476, 1370.7666666666667, N
493618, 1371.161111111111, V
493894, 1371.9277777777777, N
494063, 1372.3972222222221, V
494317, 1373.1027777777779, N
494524, 1373.6777777777777, N
494731, 1374.2527777777777, N
494947, 1374.8527777777779, N
495155, 1375.4305555555557, N
495364, 1376.0111111111112, N
495569, 1376.5805555555555, N
495776, 1377.1555555555556, N
495920, 1377.5555555555557, V
496193, 1378.3138888888889, N
496412, 1378.9222222222222, N
496621, 1379.5027777777777, N
496768, 1379.911111111111, V
497038, 1380.661111111111, N
497256, 1381.2666666666667, N
497470, 1381.861111111111, N
497617, 1382.2694444444444, V
497884, 1383.0111111111112, N
498095, 1383.5972222222222, N
498306, 1384.1833333333334, N
498453, 1384.5916666666667, V
498729, 1385.3583333333333, N
498942, 1385.95, N
499150, 1386.5277777777778, N
499293, 1386.925, V
499562, 1387.6722222222222, N
499781, 1388.2805555555556, N
499988, 1388.8555555555556, N
500136, 1389.2666666666667, V
500405, 1390.013888888889, N
500618, 1390.6055555555556, N
500827, 1391.1861111111111, N
500979, 1391.6083333333333, V
501260, 1392.388888888889, N
501473, 1392.9805555555556, N
501682, 1393.5611111111111, N
501829, 1393.9694444444444, V
502110, 1394.75, N
502330, 1395.361111111111, N
502543, 1395.9527777777778, N
502686, 1396.35, V
502958, 1397.1055555555556, N
503172, 1397.7, N
503385, 1398.2916666666667, N
503529, 1398.6916666666666, V
503807, 1399.463888888889, N
504019, 1400.0527777777777, N
504225, 1400.625, N
504371, 1401.0305555555556, V
504653, 1401.8138888888889, N
504866, 1402.4055555555556, N
505075, 1402.986111111111, N
505221, 1403.3916666666667, V
505495, 1404.1527777777778, N
505706, 1404.7388888888888, N
505918, 1405.3277777777778, N
506070, 1405.75, V
506345, 1406.513888888889, N
506558, 1407.1055555555556, N
506767, 1407.6861111111111, N
506918, 1408.1055555555556, V
507201, 1408.8916666666667, N
507416, 1409.4888888888888, N
507621, 1410.0583333333334, N
507785, 1410.513888888889, V
508037, 1411.213888888889, N
508247, 1411.7972222222222, N
508455, 1412.375, N
508667, 1412.963888888889, N
508878, 1413.55, N
509084, 1414.1222222222223, N
509296, 1414.7111111111112, N
509516, 1415.3222222222223, N
509726, 1415.9055555555556, N
509937, 1416.4916666666666, N
510145, 1417.0694444444443, N
510359, 1417.6638888888888, N
510569, 1418.2472222222223, N
510782, 1418.838888888889, N
510856, 1419.0444444444445, +
510931, 1419.2527777777777, V
511203, 1420.0083333333334, N
511375, 1420.486111111111, V
511628, 1421.1888888888889, N
511776, 1421.6, V
512057, 1422.3805555555555, N
512248, 1422.911111111111, V
512367, 1423.2416666666666, +
512487, 1423.575, N
512704, 1424.1777777777777, N
512919, 1424.775, N
513102, 1425.2833333333333, V
513355, 1425.986111111111, N
513573, 1426.5916666666667, N
513788, 1427.1888888888889, N
513965, 1427.6805555555557, V
514214, 1428.3722222222223, N
514436, 1428.9888888888888, N
514650, 1429.5833333333333, N
514818, 1430.05, V
515068, 1430.7444444444445, N
515283, 1431.3416666666667, N
515493, 1431.925, N
515666, 1432.4055555555556, V
515926, 1433.1277777777777, N
516138, 1433.7166666666667, N
516346, 1434.2944444444445, N
516513, 1434.7583333333334, V
516659, 1435.1638888888888, V
516992, 1436.088888888889, N
517140, 1436.5, V
517423, 1437.286111111111, N
517644, 1437.9, N
517860, 1438.5, N
518007, 1438.9083333333333, V
518305, 1439.736111111111, N
518501, 1440.2805555555556, V
518741, 1440.9472222222223, N
518961, 1441.5583333333334, N
519185, 1442.1805555555557, N
519404, 1442.7888888888888, N
519621, 1443.3916666666667, N
519831, 1443.975, N
520048, 1444.5777777777778, N
520259, 1445.1638888888888, N
520476, 1445.7666666666667, N
520623, 1446.175, V
520906, 1446.9611111111112, N
521119, 1447.5527777777777, N
521326, 1448.1277777777777, N
521473, 1448.536111111111, V
521759, 1449.3305555555555, N
521959, 1449.8861111111112, V
522184, 1450.5111111111112, N
522397, 1451.1027777777779, N
522612, 1451.7, N
522773, 1452.1472222222221, V
523038, 1452.8833333333334, N
523253, 1453.4805555555556, N
523464, 1454.0666666666666, N
523624, 1454.5111111111112, V
523886, 1455.2388888888888, N
524106, 1455.85, N
524317, 1456.4361111111111, N
524486, 1456.9055555555556, V
524640, 1457.3333333333333, V
524944, 1458.1777777777777, N
525087, 1458.575, V
525368, 1459.3555555555556, N
525513, 1459.7583333333334, V
525794, 1460.5388888888888, N
525940, 1460.9444444444443, V
526129, 1461.4694444444444, V
526440, 1462.3333333333333, N
526661, 1462.9472222222223, N
526878, 1463.55, N
527018, 1463.9388888888889, V
527303, 1464.7305555555556, N
527499, 1465.275, V
527733, 1465.925, N
527949, 1466.525, N
528158, 1467.1055555555556, N
528323, 1467.5638888888889, V
528579, 1468.275, N
528798, 1468.8833333333334, N
529013, 1469.4805555555556, N
529195, 1469.986111111111, V
529430, 1470.638888888889, N
529645, 1471.236111111111, N
529856, 1471.8222222222223, N
530039, 1472.3305555555555, V
530281, 1473.0027777777777, N
530498, 1473.6055555555556, N
530708, 1474.1888888888889, N
530890, 1474.6944444444443, V
531035, 1475.0972222222222, V
531342, 1475.95, N
531491, 1476.3638888888888, V
531677, 1476.8805555555555, V
531978, 1477.7166666666667, N
532193, 1478.3138888888889, N
532333, 1478.7027777777778, V
532608, 1479.4666666666667, N
532802, 1480.0055555555555, V
533037, 1480.6583333333333, N
533247, 1481.2416666666666, N
533454, 1481.8166666666666, N
533618, 1482.2722222222221, V
533881, 1483.0027777777777, N
534095, 1483.5972222222222, N
534231, 1483.975, V
534510, 1484.75, N
534727, 1485.3527777777779, N
534944, 1485.9555555555555, N
535084, 1486.3444444444444, V
535367, 1487.1305555555555, N
535584, 1487.7333333333333, N
535796, 1488.3222222222223, N
535941, 1488.725, V
536226, 1489.5166666666667, N
536443, 1490.1194444444445, N
536653, 1490.7027777777778, N
536798, 1491.1055555555556, V
537076, 1491.8777777777777, N
537293, 1492.4805555555556, N
537508, 1493.0777777777778, N
537639, 1493.4416666666666, V
537933, 1494.2583333333334, N
538146, 1494.85, N
538357, 1495.4361111111111, N
538504, 1495.8444444444444, V
538785, 1496.625, N
539003, 1497.2305555555556, N
539212, 1497.8111111111111, N
539351, 1498.1972222222223, V
539626, 1498.9611111111112, N
539847, 1499.575, N
540063, 1500.175, N
540209, 1500.5805555555555, V
540481, 1501.3361111111112, N
540693, 1501.925, N
540905, 1502.513888888889, N
541057, 1502.9361111111111, V
541330, 1503.6944444444443, N
541543, 1504.286111111111, N
541753, 1504.8694444444445, N
541899, 1505.275, V
542170, 1506.0277777777778, N
542383, 1506.6194444444445, N
542599, 1507.2194444444444, N
542742, 1507.6166666666666, V
543014, 1508.3722222222223, N
543228, 1508.9666666666667, N
543446, 1509.5722222222223, N
543591, 1509.975, V
543864, 1510.7333333333333, N
544079, 1511.3305555555555, N
544289, 1511.9138888888888, N
544437, 1512.325, V
544710, 1513.0833333333333, N
544929, 1513.6916666666666, N
545140, 1514.2777777777778, N
545287, 1514.6861111111111, V
545555, 1515.4305555555557, N
545773, 1516.036111111111, N
545993, 1516.6472222222221, N
546135, 1517.0416666666667, V
546407, 1517.7972222222222, N
546619, 1518.3861111111112, N
546834, 1518.9833333333333, N
546974, 1519.3722222222223, V
547255, 1520.1527777777778, N
547476, 1520.7666666666667, N
547680, 1521.3333333333333, N
547824, 1521.7333333333333, V
548090, 1522.4722222222222, N
548310, 1523.0833333333333, N
548522, 1523.6722222222222, N
548671, 1524.0861111111112, V
548938, 1524.8277777777778, N
549151, 1525.4194444444445, N
549362, 1526.0055555555555, N
549437, 1526.213888888889, +
549512, 1526.4222222222222, V
549782, 1527.1722222222222, N
549929, 1527.5805555555555, V
550206, 1528.35, N
550364, 1528.7888888888888, V
550493, 1529.1472222222221, +
550622, 1529.5055555555555, N
550837, 1530.1027777777779, N
551045, 1530.6805555555557, N
551250, 1531.25, N
551456, 1531.8222222222223, N
551667, 1532.4083333333333, N
551874, 1532.9833333333333, N
552087, 1533.575, N
552237, 1533.9916666666666, V
552507, 1534.7416666666666, N
552709, 1535.3027777777777, V
552844, 1535.6777777777777, V
553153, 1536.536111111111, N
553372, 1537.1444444444444, N
553591, 1537.7527777777777, N
553718, 1538.1055555555556, V
554014, 1538.9277777777777, N
554229, 1539.525, N
554449, 1540.1361111111112, N
554596, 1540.5444444444445, V
554880, 1541.3333333333333, N
555096, 1541.9333333333334, N
555306, 1542.5166666666667, N
555456, 1542.9333333333334, V
555740, 1543.7222222222222, N
555955, 1544.3194444444443, N
556163, 1544.8972222222221, N
556307, 1545.2972222222222, V
556587, 1546.075, N
556806, 1546.6833333333334, N
557027, 1547.2972222222222, N
557174, 1547.7055555555555, V
557460, 1548.5, N
557675, 1549.0972222222222, N
557897, 1549.713888888889, N
558047, 1550.1305555555555, V
558331, 1550.9194444444445, N
558546, 1551.5166666666667, N
558760, 1552.111111111111, N
558891, 1552.475, V
559184, 1553.2888888888888, N
559402, 1553.8944444444444, N
559617, 1554.4916666666666, N
559743, 1554.8416666666667, V
560034, 1555.65, N
560250, 1556.25, N
560471, 1556.8638888888888, N
560599, 1557.2194444444444, V
560897, 1558.0472222222222, N
561112, 1558.6444444444444, N
561330, 1559.25, N
561473, 1559.6472222222221, V
561755, 1560.4305555555557, N
561975, 1561.0416666666667, N
562189, 1561.6361111111112, N
562333, 1562.036111111111, V
562613, 1562.8138888888889, N
562837, 1563.4361111111111, N
563054, 1564.0388888888888, N
563187, 1564.4083333333333, V
563476, 1565.2111111111112, N
563691, 1565.8083333333334, N
563903, 1566.3972222222221, N
564036, 1566.7666666666667, V
564341, 1567.6138888888888, N
564554, 1568.2055555555555, N
564765, 1568.7916666666667, N
564893, 1569.1472222222221, V
565187, 1569.963888888889, N
565403, 1570.5638888888889, N
565618, 1571.161111111111, N
565758, 1571.55, V
566038, 1572.3277777777778, N
566256, 1572.9333333333334, N
566474, 1573.5388888888888, N
566620, 1573.9444444444443, V
566903, 1574.7305555555556, N
567120, 1575.3333333333333, N
567330, 1575.9166666666667, N
567476, 1576.3222222222223, V
567763, 1577.1194444444445, N
567978, 1577.7166666666667, N
568183, 1578.286111111111, N
568330, 1578.6944444444443, V
568598, 1579.4388888888889, N
568806, 1580.0166666666667, N
569021, 1580.6138888888888, N
569173, 1581.036111111111, V
569441, 1581.7805555555556, N
569648, 1582.3555555555556, N
569858, 1582.9388888888889, N
570057, 1583.4916666666666, V
570288, 1584.1333333333334, N
570502, 1584.7277777777779, N
570628, 1585.0777777777778, V
570922, 1585.8944444444444, N
571133, 1586.4805555555556, N
571346, 1587.0722222222223, N
571489, 1587.4694444444444, V
571768, 1588.2444444444445, N
571980, 1588.8333333333333, N
572182, 1589.3944444444444, N
572326, 1589.7944444444445, V
572609, 1590.5805555555555, N
572824, 1591.1777777777777, N
573026, 1591.7388888888888, N
573170, 1592.138888888889, V
573444, 1592.9, N
573651, 1593.475, N
573864, 1594.0666666666666, N
573995, 1594.4305555555557, V
574289, 1595.2472222222223, N
574498, 1595.8277777777778, N
574710, 1596.4166666666667, N
574859, 1596.8305555555555, V
575142, 1597.6166666666666, N
575357, 1598.213888888889, N
575563, 1598.786111111111, N
575705, 1599.1805555555557, V
575982, 1599.95, N
576199, 1600.5527777777777, N
576410, 1601.138888888889, N
576554, 1601.5388888888888, V
576835, 1602.3194444444443, N
577046, 1602.9055555555556, N
577254, 1603.4833333333333, N
577392, 1603.8666666666666, V
577680, 1604.6666666666667, N
577890, 1605.25, N
578098, 1605.8277777777778, N
578243, 1606.2305555555556, V
578516, 1606.9888888888888, N
578733, 1607.5916666666667, N
578947, 1608.1861111111111, N
579091, 1608.5861111111112, V
579361, 1609.3361111111112, N
579573, 1609.925, N
579783, 1610.5083333333334, N
579932, 1610.9222222222222, V
580205, 1611.6805555555557, N
580415, 1612.263888888889, N
580622, 1612.838888888889, N
580769, 1613.2472222222223, V
581037, 1613.9916666666666, N
581250, 1614.5833333333333, N
581464, 1615.1777777777777, N
581593, 1615.536111111111, V
581877, 1616.325, N
582090, 1616.9166666666667, N
582308, 1617.5222222222221, N
582451, 1617.9194444444445, V
582725, 1618.6805555555557, N
582938, 1619.2722222222221, N
583150, 1619.861111111111, N
583296, 1620.2666666666667, V
583571, 1621.0305555555556, N
583790, 1621.638888888889, N
584000, 1622.2222222222222, N
584146, 1622.6277777777777, V
584417, 1623.3805555555555, N
584636, 1623.9888888888888, N
584852, 1624.588888888889, N
584999, 1624.9972222222223, V
585271, 1625.7527777777777, N
585488, 1626.3555555555556, N
585700, 1626.9444444444443, N
585843, 1627.3416666666667, V
586126, 1628.1277777777777, N
586345, 1628.736111111111, N
586558, 1629.3277777777778, N
586702, 1629.7277777777779, V
586983, 1630.5083333333334, N
587208, 1631.1333333333334, N
587419, 1631.7194444444444, N
587564, 1632.1222222222223, V
587835, 1632.875, N
588057, 1633.4916666666666, N
588268, 1634.0777777777778, N
588413, 1634.4805555555556, V
588700, 1635.2777777777778, N
588918, 1635.8833333333334, N
589129, 1636.4694444444444, N
589273, 1636.8694444444445, V
589557, 1637.6583333333333, N
589774, 1638.2611111111112, N
589986, 1638.85, N
590126, 1639.2388888888888, V
590407, 1640.0194444444444, N
590622, 1640.6166666666666, N
590837, 1641.213888888889, N
590986, 1641.6277777777777, V
591262, 1642.3944444444444, N
591480, 1643.0, N
591694, 1643.5944444444444, N
591843, 1644.0083333333334, V
592126, 1644.7944444444445, N
592346, 1645.4055555555556, N
592556, 1645.9888888888888, N
592697, 1646.3805555555555, V
592980, 1647.1666666666667, N
593202, 1647.7833333333333, N
593419, 1648.3861111111112, N
593563, 1648.786111111111, V
593837, 1649.5472222222222, N
594052, 1650.1444444444444, N
594270, 1650.75, N
594420, 1651.1666666666667, V
594572, 1651.588888888889, V
594900, 1652.5, N
595074, 1652.9833333333333, V
595327, 1653.6861111111111, N
595486, 1654.1277777777777, V
595752, 1654.8666666666666, N
595970, 1655.4722222222222, N
596182, 1656.0611111111111, N
596390, 1656.638888888889, F
596607, 1657.2416666666666, N
596829, 1657.8583333333333, N
597039, 1658.4416666666666, N
597186, 1658.85, V
597462, 1659.6166666666666, N
597663, 1660.175, V
597784, 1660.5111111111112, V
598097, 1661.3805555555555, N
598323, 1662.0083333333334, N
598533, 1662.5916666666667, N
598677, 1662.9916666666666, V
598952, 1663.7555555555555, N
599175, 1664.375, N
599387, 1664.963888888889, N
599533, 1665.3694444444445, V
599805, 1666.125, N
600020, 1666.7222222222222, N
600234, 1667.3166666666666, N
600378, 1667.7166666666667, V
600664, 1668.5111111111112, N
600879, 1669.1083333333333, N
601094, 1669.7055555555555, N
601235, 1670.0972222222222, V
601515, 1670.875, N
601735, 1671.486111111111, N
601949, 1672.0805555555555, N
602090, 1672.4722222222222, V
602369, 1673.2472222222223, N
602587, 1673.8527777777779, N
602801, 1674.4472222222223, N
602944, 1674.8444444444444, V
603223, 1675.6194444444445, N
603441, 1676.225, N
603653, 1676.8138888888889, N
603796, 1677.2111111111112, V
604089, 1678.025, N
604308, 1678.6333333333334, N
604522, 1679.2277777777779, N
604666, 1679.6277777777777, V
604954, 1680.4277777777777, N
605171, 1681.0305555555556, N
605393, 1681.6472222222221, N
605492, 1681.9222222222222, +
605591, 1682.1972222222223, V
605826, 1682.85, N
605975, 1683.263888888889, V
606257, 1684.0472222222222, N
606433, 1684.536111111111, V
606695, 1685.263888888889, N
606847, 1685.6861111111111, V
607124, 1686.4555555555555, N
607307, 1686.963888888889, V
607429, 1687.3027777777777, +
607552, 1687.6444444444444, N
607775, 1688.263888888889, N
607999, 1688.8861111111112, N
608213, 1689.4805555555556, N
608427, 1690.075, N
608567, 1690.463888888889, V
608737, 1690.9361111111111, V
609081, 1691.8916666666667, N
609304, 1692.5111111111112, N
609521, 1693.1138888888888, N
609663, 1693.5083333333334, V
609954, 1694.3166666666666, N
610124, 1694.7888888888888, V
610399, 1695.5527777777777, N
610618, 1696.161111111111, N
610834, 1696.7611111111112, N
611015, 1697.263888888889, V
611267, 1697.963888888889, N
611487, 1698.575, N
611677, 1699.1027777777779, V
611912, 1699.7555555555555, N
612129, 1700.3583333333333, N
612276, 1700.7666666666667, V
612563, 1701.5638888888889, N
612725, 1702.013888888889, V
613001, 1702.7805555555556, N
613221, 1703.3916666666667, N
613362, 1703.7833333333333, V
613654, 1704.5944444444444, N
613879, 1705.2194444444444, N
614100, 1705.8333333333333, N
614240, 1706.2222222222222, V
614525, 1707.013888888889, N
614744, 1707.6222222222223, N
614961, 1708.225, N
615108, 1708.6333333333334, V
615397, 1709.4361111111111, N
615575, 1709.9305555555557, A
615818, 1710.6055555555556, N
616035, 1711.2083333333333, N
616252, 1711.8111111111111, N
616468, 1712.411111111111, N
616678, 1712.9944444444445, N
616823, 1713.3972222222221, V
617102, 1714.1722222222222, N
617319, 1714.775, N
617537, 1715.3805555555555, N
617685, 1715.7916666666667, V
617970, 1716.5833333333333, N
618188, 1717.1888888888889, N
618405, 1717.7916666666667, N
618556, 1718.2111111111112, V
618835, 1718.986111111111, N
619055, 1719.5972222222222, N
619268, 1720.1888888888889, N
619439, 1720.6638888888888, V
619688, 1721.3555555555556, N
619906, 1721.9611111111112, N
620124, 1722.5666666666666, N
620294, 1723.0388888888888, V
620544, 1723.7333333333333, N
620757, 1724.325, N
620974, 1724.9277777777777, N
621155, 1725.4305555555557, V
621297, 1725.825, V
621610, 1726.6944444444443, N
621763, 1727.1194444444445, V
622040, 1727.888888888889, N
622263, 1728.5083333333334, N
622483, 1729.1194444444445, N
622675, 1729.6527777777778, V
622912, 1730.3111111111111, N
623124, 1730.9, N
623345, 1731.513888888889, N
623542, 1732.0611111111111, V
623671, 1732.4194444444445, V
623981, 1733.2805555555556, N
624133, 1733.7027777777778, V
624412, 1734.4777777777779, N
624632, 1735.088888888889, N
624848, 1735.6888888888889, N
625026, 1736.1833333333334, V
625276, 1736.8777777777777, N
625487, 1737.463888888889, N
625705, 1738.0694444444443, N
625904, 1738.6222222222223, V
626034, 1738.9833333333333, V
626347, 1739.8527777777779, N
626497, 1740.2694444444444, V
626780, 1741.0555555555557, N
626997, 1741.6583333333333, N
627213, 1742.2583333333334, N
627402, 1742.7833333333333, V
627643, 1743.4527777777778, N
627857, 1744.0472222222222, N
628072, 1744.6444444444444, N
628266, 1745.1833333333334, V
628399, 1745.5527777777777, V
628707, 1746.4083333333333, N
628855, 1746.8194444444443, V
629132, 1747.588888888889, N
629349, 1748.1916666666666, N
629566, 1748.7944444444445, N
629638, 1748.9944444444445, +
629711, 1749.1972222222223, V
629994, 1749.9833333333333, N
630141, 1750.3916666666667, V
630428, 1751.1888888888889, N
630601, 1751.6694444444445, V
630737, 1752.0472222222222, +
630874, 1752.4277777777777, N
631097, 1753.0472222222222, N
631310, 1753.638888888889, N
631418, 1753.9388888888889, +
631488, 1754.1333333333334, V
631630, 1754.5277777777778, V
631784, 1754.9555555555555, V
632061, 1755.725, +
632138, 1755.9388888888889, N
632310, 1756.4166666666667, V
632571, 1757.1416666666667, N
632786, 1757.7388888888888, N
633003, 1758.3416666666667, N
633219, 1758.9416666666666, N
633431, 1759.5305555555556, N
633571, 1759.9194444444445, V
633851, 1760.6972222222223, N
634008, 1761.1333333333334, V
634276, 1761.8777777777777, N
634492, 1762.4777777777779, N
634710, 1763.0833333333333, N
634880, 1763.5555555555557, V
635131, 1764.2527777777777, N
635349, 1764.8583333333333, N
635571, 1765.475, N
635745, 1765.9583333333333, V
635990, 1766.638888888889, N
636198, 1767.2166666666667, N
636415, 1767.8194444444443, N
636602, 1768.338888888889, V
636730, 1768.6944444444443, V
637046, 1769.5722222222223, N
637202, 1770.0055555555555, V
637466, 1770.7388888888888, N
637637, 1771.213888888889, V
637897, 1771.9361111111111, N
638113, 1772.536111111111, N
638260, 1772.9444444444443, V
638530, 1773.6944444444443, N
638677, 1774.1027777777779, V
638954, 1774.8722222222223, N
639174, 1775.4833333333333, N
639320, 1775.888888888889, V
639605, 1776.6805555555557, N
639811, 1777.2527777777777, V
640024, 1777.8444444444444, N
640235, 1778.4305555555557, N
640454, 1779.0388888888888, N
640666, 1779.6277777777777, N
640809, 1780.025, V
641078, 1780.7722222222221, N
641291, 1781.3638888888888, N
641498, 1781.9388888888889, N
641706, 1782.5166666666667, N
641917, 1783.1027777777779, N
642121, 1783.6694444444445, N
642325, 1784.236111111111, N
642508, 1784.7444444444445, V
642742, 1785.3944444444444, N
642952, 1785.9777777777779, N
643160, 1786.5555555555557, N
643333, 1787.036111111111, V
643468, 1787.411111111111, V
643777, 1788.2694444444444, N
643938, 1788.7166666666667, V
644201, 1789.4472222222223, N
644410, 1790.0277777777778, N
644479, 1790.2194444444444, +
644548, 1790.411111111111, V
644816, 1791.1555555555556, N
644963, 1791.5638888888889, V
645245, 1792.3472222222222, N
645388, 1792.7444444444445, V
645662, 1793.5055555555555, N
645803, 1793.8972222222221, V
646079, 1794.6638888888888, N
646241, 1795.1138888888888, V
646373, 1795.4805555555556, +
646505, 1795.8472222222222, N
646728, 1796.4666666666667, N
646940, 1797.0555555555557, N
647154, 1797.65, N
647367, 1798.2416666666666, N
647513, 1798.6472222222221, V
647808, 1799.4666666666667, N
648026, 1800.0722222222223, N
648240, 1800.6666666666667, N
648382, 1801.0611111111111, V
648653, 1801.8138888888889, N
648873, 1802.425, N
649090, 1803.0277777777778, N
649237, 1803.4361111111111, V
649518, 1804.2166666666667, N
649730, 1804.8055555555557, N
649946, 1805.4055555555556, N
