52, 0.14444444444444443, +
135, 0.375, N
366, 1.0166666666666666, N
606, 1.6833333333333333, N
841, 2.3361111111111112, N
1082, 3.0055555555555555, N
1327, 3.686111111111111, N
1562, 4.338888888888889, N
1794, 4.983333333333333, N
2042, 5.6722222222222225, N
2289, 6.358333333333333, N
2528, 7.022222222222222, N
2759, 7.663888888888889, N
2994, 8.316666666666666, N
3227, 8.963888888888889, N
3463, 9.619444444444444, N
3704, 10.28888888888889, N
3938, 10.938888888888888, N
4166, 11.572222222222223, N
4400, 12.222222222222221, N
4646, 12.905555555555555, N
4880, 13.555555555555555, N
5108, 14.188888888888888, N
5339, 14.830555555555556, N
5572, 15.477777777777778, N
5805, 16.125, N
6036, 16.766666666666666, N
6271, 17.419444444444444, N
6506, 18.072222222222223, N
6736, 18.711111111111112, N
6974, 19.372222222222224, N
7210, 20.02777777777778, N
7445, 20.680555555555557, N
7676, 21.322222222222223, N
7909, 21.969444444444445, N
8142, 22.616666666666667, N
8380, 23.27777777777778, N
8622, 23.95, N
8852, 24.58888888888889, N
9084, 25.233333333333334, N
9322, 25.894444444444446, N
9568, 26.57777777777778, N
9805, 27.23611111111111, N
10034, 27.872222222222224, N
10266, 28.516666666666666, N
10503, 29.175, N
10741, 29.836111111111112, N
10982, 30.505555555555556, N
11211, 31.141666666666666, N
11441, 31.780555555555555, N
11673, 32.425, N
11915, 33.09722222222222, N
12147, 33.74166666666667, N
12378, 34.38333333333333, N
12608, 35.022222222222226, N
12844, 35.67777777777778, N
13073, 36.31388888888889, N
13310, 36.97222222222222, N
13546, 37.62777777777778, N
13780, 38.27777777777778, N
14009, 38.91388888888889, N
14250, 39.583333333333336, N
14489, 40.24722222222222, N
14723, 40.897222222222226, N
14952, 41.53333333333333, N
15185, 42.18055555555556, N
15415, 42.81944444444444, N
15651, 43.475, N
15892, 44.144444444444446, N
16120, 44.77777777777778, N
16348, 45.41111111111111, N
16581, 46.05833333333333, N
16827, 46.74166666666667, N
17060, 47.388888888888886, N
17288, 48.022222222222226, N
17518, 48.66111111111111, N
17755, 49.31944444444444, N
17992, 49.977777777777774, N
18230, 50.638888888888886, N
18463, 51.28611111111111, N
18697, 51.93611111111111, N
18927, 52.575, N
19171, 53.25277777777778, N
19404, 53.9, N
19637, 54.547222222222224, N
19863, 55.175, N
20094, 55.81666666666667, N
20320, 56.44444444444444, N
20553, 57.09166666666667, N
20785, 57.736111111111114, N
21014, 58.37222222222222, N
21238, 58.99444444444445, N
21470, 59.638888888888886, N
21705, 60.291666666666664, N
21936, 60.93333333333333, N
22162, 61.56111111111111, N
22392, 62.2, N
22624, 62.84444444444444, N
22859, 63.49722222222222, N
23097, 64.15833333333333, N
23326, 64.79444444444445, N
23557, 65.43611111111112, N
23785, 66.06944444444444, N
24026, 66.7388888888889, N
24255, 67.375, N
24485, 68.01388888888889, N
24712, 68.64444444444445, N
24942, 69.28333333333333, N
25167, 69.90833333333333, N
25403, 70.56388888888888, N
25638, 71.21666666666667, N
25867, 71.85277777777777, N
26090, 72.47222222222223, N
26329, 73.1361111111111, N
26568, 73.8, N
26803, 74.45277777777778, N
27028, 75.07777777777778, N
27259, 75.71944444444445, N
27490, 76.36111111111111, N
27723, 77.00833333333334, N
27964, 77.67777777777778, N
28195, 78.31944444444444, N
28423, 78.95277777777778, N
28654, 79.59444444444445, N
28896, 80.26666666666667, N
29128, 80.91111111111111, N
29357, 81.54722222222222, N
29587, 82.18611111111112, N
29825, 82.84722222222223, N
30056, 83.4888888888889, N
30291, 84.14166666666667, N
30522, 84.78333333333333, N
30755, 85.43055555555556, N
30980, 86.05555555555556, N
31217, 86.71388888888889, N
31452, 87.36666666666666, N
31685, 88.01388888888889, N
31909, 88.6361111111111, N
32139, 89.275, N
32367, 89.90833333333333, N
32602, 90.56111111111112, N
32837, 91.21388888888889, N
33065, 91.84722222222223, N
33290, 92.47222222222223, N
33519, 93.10833333333333, N
33756, 93.76666666666667, N
33988, 94.41111111111111, N
34216, 95.04444444444445, N
34440, 95.66666666666667, N
34674, 96.31666666666666, N
34904, 96.95555555555555, N
35140, 97.61111111111111, N
35374, 98.2611111111111, N
35604, 98.9, N
35832, 99.53333333333333, N
36070, 100.19444444444444, N
36307, 100.85277777777777, N
36542, 101.50555555555556, N
36767, 102.13055555555556, N
36997, 102.76944444444445, N
37224, 103.4, N
37459, 104.05277777777778, N
37695, 104.70833333333333, N
37923, 105.34166666666667, N
38151, 105.975, N
38385, 106.625, N
38628, 107.3, N
38860, 107.94444444444444, N
39090, 108.58333333333333, N
39323, 109.23055555555555, N
39557, 109.88055555555556, N
39789, 110.525, N
40025, 111.18055555555556, N
40261, 111.83611111111111, N
40494, 112.48333333333333, N
40723, 113.11944444444444, N
40962, 113.78333333333333, N
41203, 114.45277777777778, N
41440, 115.11111111111111, N
41669, 115.74722222222222, N
41901, 116.39166666666667, N
42133, 117.03611111111111, N
42369, 117.69166666666666, N
42613, 118.36944444444444, N
42843, 119.00833333333334, N
43069, 119.6361111111111, N
43302, 120.28333333333333, N
43546, 120.96111111111111, N
43780, 121.61111111111111, N
44007, 122.24166666666666, N
44235, 122.875, N
44469, 123.525, N
44701, 124.16944444444445, N
44932, 124.81111111111112, N
45163, 125.45277777777778, N
45391, 126.08611111111111, N
45611, 126.69722222222222, N
45840, 127.33333333333333, N
46078, 127.99444444444444, N
46312, 128.64444444444445, N
46543, 129.2861111111111, N
46777, 129.9361111111111, N
47010, 130.58333333333334, N
47247, 131.24166666666667, N
47486, 131.90555555555557, N
47715, 132.54166666666666, N
47945, 133.18055555555554, N
48181, 133.8361111111111, N
48425, 134.51388888888889, N
48661, 135.16944444444445, N
48893, 135.8138888888889, N
49126, 136.4611111111111, N
49363, 137.11944444444444, N
49605, 137.79166666666666, N
49847, 138.4638888888889, N
50079, 139.10833333333332, N
50311, 139.75277777777777, N
50543, 140.3972222222222, N
50787, 141.075, N
51022, 141.7277777777778, N
51258, 142.38333333333333, N
51488, 143.0222222222222, N
51725, 143.68055555555554, N
51958, 144.32777777777778, N
52198, 144.99444444444444, N
52432, 145.64444444444445, N
52665, 146.29166666666666, N
52895, 146.93055555555554, N
53139, 147.60833333333332, N
53375, 148.26388888888889, N
53609, 148.9138888888889, N
53838, 149.55, N
54070, 150.19444444444446, N
54299, 150.83055555555555, N
54534, 151.48333333333332, N
54772, 152.14444444444445, N
55002, 152.78333333333333, N
55227, 153.40833333333333, N
55462, 154.0611111111111, N
55704, 154.73333333333332, N
55934, 155.37222222222223, N
56160, 156.0, N
56390, 156.63888888888889, N
56624, 157.2888888888889, N
56860, 157.94444444444446, N
57099, 158.60833333333332, N
57331, 159.25277777777777, N
57564, 159.9, N
57793, 160.5361111111111, N
58033, 161.20277777777778, N
58266, 161.85, N
58497, 162.49166666666667, N
58724, 163.12222222222223, N
58956, 163.76666666666668, N
59183, 164.3972222222222, N
59416, 165.04444444444445, N
59650, 165.69444444444446, N
59882, 166.3388888888889, N
60108, 166.96666666666667, N
60344, 167.62222222222223, N
60584, 168.2888888888889, N
60820, 168.94444444444446, N
61048, 169.57777777777778, N
61281, 170.225, N
61515, 170.875, N
61752, 171.53333333333333, N
61992, 172.2, N
62223, 172.84166666666667, N
62456, 173.48888888888888, N
62694, 174.15, N
62939, 174.83055555555555, N
63171, 175.475, N
63398, 176.10555555555555, N
63629, 176.74722222222223, N
63862, 177.39444444444445, N
64095, 178.04166666666666, N
64334, 178.70555555555555, N
64562, 179.3388888888889, N
64794, 179.98333333333332, N
65022, 180.61666666666667, N
65265, 181.29166666666666, N
65499, 181.94166666666666, N
65734, 182.59444444444443, N
65965, 183.23611111111111, N
66200, 183.88888888888889, N
66430, 184.52777777777777, N
66669, 185.19166666666666, N
66907, 185.8527777777778, N
67141, 186.50277777777777, N
67366, 187.12777777777777, N
67602, 187.78333333333333, N
67840, 188.44444444444446, N
68073, 189.09166666666667, N
68298, 189.71666666666667, N
68528, 190.35555555555555, N
68758, 190.99444444444444, N
68991, 191.64166666666668, N
69226, 192.29444444444445, N
69453, 192.925, N
69680, 193.55555555555554, N
69910, 194.19444444444446, N
70153, 194.86944444444444, N
70385, 195.51388888888889, N
70615, 196.15277777777777, N
70842, 196.78333333333333, N
71079, 197.44166666666666, N
71307, 198.075, N
71543, 198.73055555555555, N
71776, 199.37777777777777, N
72007, 200.01944444444445, N
72231, 200.64166666666668, N
72466, 201.29444444444445, N
72704, 201.95555555555555, N
72939, 202.60833333333332, N
73164, 203.23333333333332, N
73396, 203.87777777777777, N
73629, 204.525, N
73867, 205.1861111111111, N
74108, 205.85555555555555, N
74343, 206.50833333333333, N
74579, 207.1638888888889, N
74814, 207.81666666666666, N
75056, 208.48888888888888, N
75290, 209.13888888888889, N
75522, 209.78333333333333, N
75753, 210.425, N
75986, 211.07222222222222, N
76218, 211.71666666666667, N
76451, 212.36388888888888, N
76684, 213.01111111111112, N
76915, 213.65277777777777, N
77140, 214.27777777777777, N
77378, 214.9388888888889, N
77614, 215.59444444444443, N
77849, 216.24722222222223, N
78075, 216.875, N
78308, 217.5222222222222, N
78541, 218.16944444444445, N
78783, 218.84166666666667, N
79024, 219.51111111111112, N
79255, 220.15277777777777, N
79482, 220.78333333333333, N
79721, 221.44722222222222, N
79962, 222.11666666666667, N
80196, 222.76666666666668, N
80423, 223.3972222222222, N
80657, 224.04722222222222, N
80891, 224.69722222222222, N
81125, 225.34722222222223, N
81363, 226.00833333333333, N
81596, 226.65555555555557, N
81825, 227.29166666666666, N
82056, 227.93333333333334, N
82294, 228.59444444444443, N
82531, 229.25277777777777, N
82765, 229.90277777777777, N
82998, 230.55, N
83235, 231.20833333333334, N
83465, 231.84722222222223, N
83702, 232.50555555555556, N
83943, 233.175, N
84178, 233.82777777777778, N
84407, 234.4638888888889, N
84644, 235.12222222222223, N
84886, 235.79444444444445, N
85120, 236.44444444444446, N
85346, 237.07222222222222, N
85578, 237.71666666666667, N
85809, 238.35833333333332, N
86047, 239.01944444444445, N
86289, 239.69166666666666, N
86520, 240.33333333333334, N
86753, 240.98055555555555, N
86992, 241.64444444444445, N
87240, 242.33333333333334, N
87480, 243.0, N
87713, 243.6472222222222, N
87949, 244.30277777777778, N
88188, 244.96666666666667, N
88432, 245.64444444444445, N
88676, 246.32222222222222, N
88911, 246.975, N
89146, 247.62777777777777, N
89385, 248.29166666666666, N
89632, 248.9777777777778, N
89869, 249.63611111111112, N
90103, 250.2861111111111, N
90341, 250.94722222222222, N
90581, 251.61388888888888, N
90824, 252.2888888888889, N
91069, 252.96944444444443, N
91307, 253.63055555555556, N
91547, 254.29722222222222, N
91786, 254.9611111111111, N
92037, 255.65833333333333, N
92275, 256.31944444444446, N
92511, 256.975, N
92749, 257.6361111111111, N
92989, 258.3027777777778, N
93228, 258.96666666666664, N
93471, 259.64166666666665, N
93706, 260.2944444444444, N
93940, 260.94444444444446, N
94176, 261.6, N
94422, 262.28333333333336, N
94662, 262.95, N
94896, 263.6, N
95130, 264.25, N
95370, 264.9166666666667, N
95608, 265.5777777777778, N
95850, 266.25, N
96090, 266.9166666666667, N
96325, 267.56944444444446, N
96557, 268.2138888888889, N
96798, 268.8833333333333, N
97036, 269.5444444444444, N
97267, 270.18611111111113, N
97495, 270.81944444444446, N
97727, 271.4638888888889, N
97955, 272.09722222222223, N
98185, 272.7361111111111, N
98418, 273.3833333333333, N
98644, 274.0111111111111, N
98868, 274.6333333333333, N
99097, 275.26944444444445, N
99333, 275.925, N
99562, 276.56111111111113, N
99787, 277.18611111111113, N
100014, 277.81666666666666, N
100245, 278.4583333333333, N
100478, 279.10555555555555, N
100712, 279.75555555555553, N
100940, 280.3888888888889, N
101168, 281.02222222222224, N
101392, 281.64444444444445, N
101626, 282.2944444444444, N
101860, 282.94444444444446, N
102092, 283.5888888888889, N
102314, 284.2055555555556, N
102540, 284.8333333333333, N
102768, 285.46666666666664, N
103004, 286.1222222222222, N
103244, 286.7888888888889, N
103470, 287.4166666666667, N
103698, 288.05, N
103932, 288.7, N
104175, 289.375, N
104405, 290.0138888888889, N
104635, 290.65277777777777, N
104863, 291.2861111111111, N
105096, 291.93333333333334, N
105325, 292.56944444444446, N
105560, 293.22222222222223, N
105789, 293.85833333333335, N
106019, 294.4972222222222, N
106242, 295.1166666666667, N
106477, 295.76944444444445, N
106709, 296.4138888888889, N
106941, 297.05833333333334, N
107166, 297.68333333333334, N
107396, 298.3222222222222, N
107625, 298.9583333333333, N
107857, 299.60277777777776, N
108095, 300.2638888888889, N
108324, 300.9, N
108555, 301.5416666666667, N
108783, 302.175, N
109027, 302.85277777777776, N
109257, 303.4916666666667, N
109486, 304.1277777777778, N
109716, 304.76666666666665, N
109951, 305.4194444444444, N
110180, 306.05555555555554, N
110417, 306.7138888888889, N
110652, 307.3666666666667, N
110885, 308.0138888888889, N
111109, 308.6361111111111, N
111349, 309.3027777777778, N
111588, 309.96666666666664, N
111824, 310.6222222222222, N
112051, 311.2527777777778, N
112285, 311.90277777777777, N
112520, 312.55555555555554, N
112760, 313.22222222222223, N
113001, 313.89166666666665, N
113240, 314.55555555555554, N
113471, 315.1972222222222, N
113712, 315.8666666666667, N
113955, 316.5416666666667, N
114192, 317.2, N
114422, 317.8388888888889, N
114658, 318.49444444444447, N
114894, 319.15, N
115135, 319.81944444444446, N
115374, 320.48333333333335, N
115605, 321.125, N
115838, 321.77222222222224, N
116075, 322.43055555555554, N
116319, 323.10833333333335, N
116554, 323.7611111111111, N
116787, 324.40833333333336, N
117021, 325.05833333333334, N
117260, 325.72222222222223, N
117500, 326.3888888888889, N
117743, 327.06388888888887, N
117980, 327.72222222222223, N
118215, 328.375, N
118450, 329.02777777777777, N
118697, 329.7138888888889, N
118937, 330.38055555555553, N
119174, 331.0388888888889, N
119405, 331.68055555555554, N
119640, 332.3333333333333, N
119871, 332.975, N
120111, 333.64166666666665, N
120346, 334.2944444444444, N
120581, 334.9472222222222, N
120814, 335.59444444444443, N
121063, 336.2861111111111, N
121305, 336.9583333333333, N
121544, 337.6222222222222, N
121778, 338.27222222222224, N
122019, 338.94166666666666, N
122253, 339.59166666666664, N
122492, 340.25555555555553, N
122733, 340.925, N
122970, 341.5833333333333, N
123199, 342.21944444444443, N
123440, 342.8888888888889, N
123681, 343.55833333333334, N
123917, 344.2138888888889, N
124146, 344.85, N
124383, 345.5083333333333, N
124621, 346.1694444444444, N
124863, 346.84166666666664, N
125107, 347.51944444444445, N
125347, 348.18611111111113, N
125581, 348.8361111111111, N
125827, 349.51944444444445, N
126073, 350.2027777777778, N
126316, 350.8777777777778, N
126550, 351.52777777777777, N
126788, 352.18888888888887, N
127027, 352.85277777777776, N
127275, 353.5416666666667, N
127524, 354.23333333333335, N
127765, 354.90277777777777, N
128001, 355.55833333333334, N
128245, 356.2361111111111, N
128490, 356.9166666666667, N
128734, 357.59444444444443, N
128968, 358.24444444444447, N
129206, 358.90555555555557, N
129443, 359.56388888888887, N
129688, 360.24444444444447, N
129934, 360.9277777777778, N
130174, 361.59444444444443, N
130410, 362.25, N
130659, 362.94166666666666, N
130907, 363.63055555555553, N
131151, 364.30833333333334, N
131390, 364.97222222222223, N
131633, 365.64722222222224, N
131873, 366.31388888888887, N
132122, 367.00555555555553, N
132370, 367.69444444444446, N
132610, 368.3611111111111, N
132847, 369.01944444444445, N
133094, 369.7055555555556, N
133340, 370.3888888888889, N
133583, 371.06388888888887, N
133818, 371.71666666666664, N
134057, 372.38055555555553, N
134293, 373.0361111111111, N
134537, 373.7138888888889, N
134785, 374.40277777777777, N
135024, 375.06666666666666, N
135255, 375.7083333333333, N
135495, 376.375, N
135740, 377.05555555555554, N
135977, 377.7138888888889, N
136204, 378.34444444444443, N
136435, 378.9861111111111, N
136667, 379.63055555555553, N
136903, 380.2861111111111, N
137140, 380.94444444444446, N
137371, 381.5861111111111, N
137599, 382.21944444444443, N
137832, 382.8666666666667, N
138074, 383.5388888888889, N
138309, 384.19166666666666, N
138541, 384.8361111111111, N
138775, 385.4861111111111, N
139014, 386.15, N
139254, 386.81666666666666, N
139493, 387.48055555555555, N
139730, 388.1388888888889, N
139964, 388.7888888888889, N
140198, 389.43888888888887, N
140441, 390.1138888888889, N
140681, 390.78055555555557, N
140919, 391.44166666666666, N
141150, 392.0833333333333, N
141382, 392.72777777777776, N
141614, 393.3722222222222, N
141850, 394.02777777777777, N
142090, 394.69444444444446, N
142320, 395.3333333333333, N
142550, 395.97222222222223, N
142785, 396.625, N
143027, 397.2972222222222, N
143262, 397.95, N
143494, 398.59444444444443, N
143728, 399.24444444444447, N
143965, 399.90277777777777, N
144095, 400.2638888888889, ~
144206, 400.5722222222222, N
144451, 401.2527777777778, N
144534, 401.48333333333335, ~
144686, 401.90555555555557, N
144919, 402.5527777777778, N
145155, 403.2083333333333, N
145401, 403.89166666666665, N
145635, 404.5416666666667, N
145868, 405.18888888888887, N
146101, 405.8361111111111, N
146342, 406.50555555555553, N
146581, 407.1694444444444, N
146824, 407.84444444444443, N
147063, 408.5083333333333, N
147172, 408.81111111111113, ~
147302, 409.1722222222222, N
147428, 409.52222222222224, ~
147541, 409.8361111111111, N
147793, 410.5361111111111, N
148032, 411.2, N
148268, 411.85555555555555, N
148503, 412.5083333333333, N
148745, 413.18055555555554, N
148980, 413.8333333333333, N
149220, 414.5, N
149457, 415.15833333333336, N
149692, 415.81111111111113, N
149922, 416.45, N
150163, 417.11944444444447, N
150404, 417.7888888888889, N
150641, 418.4472222222222, N
150873, 419.09166666666664, N
151116, 419.76666666666665, N
151351, 420.4194444444444, N
151592, 421.0888888888889, N
151835, 421.7638888888889, N
152075, 422.43055555555554, N
152309, 423.0805555555556, N
152553, 423.7583333333333, N
152798, 424.43888888888887, N
153038, 425.10555555555555, N
153268, 425.74444444444447, N
153505, 426.40277777777777, N
153742, 427.06111111111113, N
153982, 427.72777777777776, N
154228, 428.4111111111111, N
154467, 429.075, N
154705, 429.7361111111111, N
154955, 430.43055555555554, N
155205, 431.125, N
155452, 431.81111111111113, N
155691, 432.475, N
155935, 433.15277777777777, N
156175, 433.81944444444446, N
156422, 434.50555555555553, N
156667, 435.18611111111113, N
156907, 435.85277777777776, N
157144, 436.5111111111111, N
157390, 437.19444444444446, N
157632, 437.8666666666667, N
157873, 438.5361111111111, N
158107, 439.18611111111113, N
158344, 439.84444444444443, N
158577, 440.4916666666667, N
158816, 441.15555555555557, N
159058, 441.8277777777778, N
159294, 442.48333333333335, N
159523, 443.11944444444447, N
159765, 443.7916666666667, N
160008, 444.46666666666664, N
160245, 445.125, N
160477, 445.76944444444445, N
160713, 446.425, N
160947, 447.075, N
161187, 447.7416666666667, N
161431, 448.4194444444444, N
161666, 449.0722222222222, N
161897, 449.7138888888889, N
162136, 450.3777777777778, N
162382, 451.06111111111113, N
162617, 451.7138888888889, N
162846, 452.35, N
163077, 452.9916666666667, N
163313, 453.64722222222224, N
163553, 454.31388888888887, N
163794, 454.98333333333335, N
164026, 455.6277777777778, N
164258, 456.27222222222224, N
164493, 456.925, N
164740, 457.6111111111111, N
164976, 458.26666666666665, N
165208, 458.9111111111111, N
165442, 459.56111111111113, N
165681, 460.225, N
165918, 460.8833333333333, N
166157, 461.5472222222222, N
166388, 462.18888888888887, N
166624, 462.84444444444443, N
166853, 463.48055555555555, N
167093, 464.14722222222224, N
167326, 464.7944444444444, N
167560, 465.44444444444446, N
167789, 466.0805555555556, N
168023, 466.73055555555555, N
168251, 467.3638888888889, N
168488, 468.02222222222224, N
168724, 468.6777777777778, N
168957, 469.325, N
169183, 469.9527777777778, N
169422, 470.6166666666667, N
169661, 471.28055555555557, N
169896, 471.93333333333334, N
170121, 472.55833333333334, N
170350, 473.19444444444446, N
170580, 473.8333333333333, N
170814, 474.48333333333335, N
171052, 475.14444444444445, N
171279, 475.775, N
171504, 476.4, N
171732, 477.03333333333336, N
171973, 477.7027777777778, N
172203, 478.34166666666664, N
172432, 478.97777777777776, N
172659, 479.60833333333335, N
172892, 480.25555555555553, N
173118, 480.8833333333333, N
173353, 481.5361111111111, N
173587, 482.18611111111113, N
173820, 482.8333333333333, N
174044, 483.4555555555556, N
174280, 484.1111111111111, N
174520, 484.77777777777777, N
174753, 485.425, N
174980, 486.05555555555554, N
175213, 486.7027777777778, N
175444, 487.34444444444443, N
175679, 487.9972222222222, N
175915, 488.65277777777777, N
176147, 489.2972222222222, N
176377, 489.93611111111113, N
176607, 490.575, N
176846, 491.2388888888889, N
177079, 491.8861111111111, N
177311, 492.53055555555557, N
177539, 493.1638888888889, N
177775, 493.81944444444446, N
178007, 494.4638888888889, N
178244, 495.1222222222222, N
178481, 495.78055555555557, N
178713, 496.425, N
178939, 497.0527777777778, N
179176, 497.7111111111111, N
179416, 498.3777777777778, N
179652, 499.03333333333336, N
179875, 499.65277777777777, N
180106, 500.2944444444444, N
180336, 500.93333333333334, N
180573, 501.59166666666664, N
180810, 502.25, N
181039, 502.8861111111111, N
181269, 503.525, N
181501, 504.1694444444444, N
181741, 504.8361111111111, N
181973, 505.48055555555555, N
182202, 506.1166666666667, N
182433, 506.7583333333333, N
182666, 507.40555555555557, N
182899, 508.0527777777778, N
183134, 508.7055555555556, N
183366, 509.35, N
183596, 509.9888888888889, N
183824, 510.6222222222222, N
184059, 511.275, N
184290, 511.9166666666667, N
184519, 512.5527777777778, N
184743, 513.175, N
184971, 513.8083333333333, N
185197, 514.4361111111111, N
185430, 515.0833333333334, N
185667, 515.7416666666667, N
185893, 516.3694444444444, N
186117, 516.9916666666667, N
186349, 517.6361111111111, N
186590, 518.3055555555555, N
186823, 518.9527777777778, N
187048, 519.5777777777778, N
187275, 520.2083333333334, N
187507, 520.8527777777778, N
187737, 521.4916666666667, N
187968, 522.1333333333333, N
188197, 522.7694444444444, N
188422, 523.3944444444444, N
188644, 524.0111111111111, N
188877, 524.6583333333333, N
189112, 525.3111111111111, N
189341, 525.9472222222222, N
189564, 526.5666666666667, N
189792, 527.2, N
190021, 527.8361111111111, N
190254, 528.4833333333333, N
190491, 529.1416666666667, N
190719, 529.775, N
190947, 530.4083333333333, N
191181, 531.0583333333333, N
191422, 531.7277777777778, N
191653, 532.3694444444444, N
191880, 533.0, N
192110, 533.6388888888889, N
192341, 534.2805555555556, N
192574, 534.9277777777778, N
192807, 535.575, N
193035, 536.2083333333334, N
193263, 536.8416666666667, N
193489, 537.4694444444444, N
193724, 538.1222222222223, N
193958, 538.7722222222222, N
194189, 539.4138888888889, N
194416, 540.0444444444445, N
194643, 540.675, N
194870, 541.3055555555555, N
195105, 541.9583333333334, N
195347, 542.6305555555556, N
195576, 543.2666666666667, N
195801, 543.8916666666667, N
196036, 544.5444444444445, N
196275, 545.2083333333334, N
196508, 545.8555555555556, N
196733, 546.4805555555556, N
196963, 547.1194444444444, N
197194, 547.7611111111111, N
197427, 548.4083333333333, N
197663, 549.0638888888889, N
197892, 549.7, N
198118, 550.3277777777778, N
198347, 550.9638888888888, N
198585, 551.625, N
198815, 552.2638888888889, N
199042, 552.8944444444444, N
199270, 553.5277777777778, N
199504, 554.1777777777778, N
199733, 554.8138888888889, N
199965, 555.4583333333334, N
200198, 556.1055555555556, N
200426, 556.7388888888889, N
200649, 557.3583333333333, N
200881, 558.0027777777777, N
201118, 558.6611111111112, N
201346, 559.2944444444445, N
201568, 559.9111111111112, N
201793, 560.5361111111112, N
202020, 561.1666666666666, N
202250, 561.8055555555555, N
202483, 562.4527777777778, N
202710, 563.0833333333334, N
202936, 563.7111111111111, N
203161, 564.3361111111111, N
203396, 564.9888888888889, N
203631, 565.6416666666667, N
203863, 566.2861111111112, N
204089, 566.9138888888889, N
204317, 567.5472222222222, N
204544, 568.1777777777778, N
204775, 568.8194444444445, N
205010, 569.4722222222222, N
205234, 570.0944444444444, N
205459, 570.7194444444444, N
205689, 571.3583333333333, N
205925, 572.0138888888889, N
206153, 572.6472222222222, N
206378, 573.2722222222222, N
206605, 573.9027777777778, N
206839, 574.5527777777778, N
207073, 575.2027777777778, N
207312, 575.8666666666667, N
207544, 576.5111111111111, N
207779, 577.1638888888889, N
208014, 577.8166666666667, N
208258, 578.4944444444444, N
208497, 579.1583333333333, N
208734, 579.8166666666667, N
208969, 580.4694444444444, N
209207, 581.1305555555556, N
209441, 581.7805555555556, N
209682, 582.45, N
209924, 583.1222222222223, N
210159, 583.775, N
210389, 584.4138888888889, N
210629, 585.0805555555555, N
210871, 585.7527777777777, N
211110, 586.4166666666666, N
211343, 587.0638888888889, N
211580, 587.7222222222222, N
211815, 588.375, N
212055, 589.0416666666666, N
212301, 589.725, N
212536, 590.3777777777777, N
212766, 591.0166666666667, N
213004, 591.6777777777778, N
213249, 592.3583333333333, N
213483, 593.0083333333333, N
213711, 593.6416666666667, N
213942, 594.2833333333333, N
214178, 594.9388888888889, N
214413, 595.5916666666667, N
214649, 596.2472222222223, N
214879, 596.8861111111111, N
215113, 597.5361111111112, N
215346, 598.1833333333333, N
215592, 598.8666666666667, N
215827, 599.5194444444444, N
216062, 600.1722222222222, N
216296, 600.8222222222222, N
216538, 601.4944444444444, N
216778, 602.1611111111112, N
217022, 602.8388888888888, N
217259, 603.4972222222223, N
217496, 604.1555555555556, N
217731, 604.8083333333333, N
217977, 605.4916666666667, N
218215, 606.1527777777778, N
218456, 606.8222222222222, N
218688, 607.4666666666667, N
218927, 608.1305555555556, N
219161, 608.7805555555556, N
219403, 609.4527777777778, N
219641, 610.1138888888889, N
219878, 610.7722222222222, N
220109, 611.4138888888889, N
220353, 612.0916666666667, N
220592, 612.7555555555556, N
220830, 613.4166666666666, N
221062, 614.0611111111111, N
221300, 614.7222222222222, N
221532, 615.3666666666667, N
221773, 616.0361111111112, N
222012, 616.7, N
222247, 617.3527777777778, N
222476, 617.9888888888889, N
222718, 618.6611111111112, N
222960, 619.3333333333334, N
223196, 619.9888888888889, N
223425, 620.625, N
223660, 621.2777777777778, N
223893, 621.925, N
224133, 622.5916666666667, N
224374, 623.2611111111111, N
224608, 623.9111111111112, N
224836, 624.5444444444445, N
225074, 625.2055555555555, N
225321, 625.8916666666667, N
225558, 626.55, N
225787, 627.1861111111111, N
226023, 627.8416666666667, N
226259, 628.4972222222223, N
226500, 629.1666666666666, N
226741, 629.8361111111111, N
226975, 630.4861111111111, N
227211, 631.1416666666667, N
227444, 631.7888888888889, N
227689, 632.4694444444444, N
227926, 633.1277777777777, N
228158, 633.7722222222222, N
228393, 634.425, N
228630, 635.0833333333334, N
228870, 635.75, N
229111, 636.4194444444445, N
229344, 637.0666666666667, N
229580, 637.7222222222222, N
229815, 638.375, N
230060, 639.0555555555555, N
230295, 639.7083333333334, N
230529, 640.3583333333333, N
230758, 640.9944444444444, N
230993, 641.6472222222222, N
231223, 642.2861111111112, N
231461, 642.9472222222222, N
231691, 643.5861111111111, N
231921, 644.225, N
232146, 644.85, N
232384, 645.5111111111111, N
232619, 646.1638888888889, N
232852, 646.8111111111111, N
233078, 647.4388888888889, N
233311, 648.0861111111111, N
233540, 648.7222222222222, N
233780, 649.3888888888889, N
234021, 650.0583333333333, N
234257, 650.7138888888888, N
234488, 651.3555555555556, N
234729, 652.025, N
234973, 652.7027777777778, N
235208, 653.3555555555556, N
235437, 653.9916666666667, N
235673, 654.6472222222222, N
235904, 655.2888888888889, N
236140, 655.9444444444445, N
236377, 656.6027777777778, N
236608, 657.2444444444444, N
236836, 657.8777777777777, N
237065, 658.5138888888889, N
237308, 659.1888888888889, N
237542, 659.8388888888888, N
237772, 660.4777777777778, N
237999, 661.1083333333333, N
238237, 661.7694444444444, N
238470, 662.4166666666666, N
238707, 663.075, N
238943, 663.7305555555556, N
239178, 664.3833333333333, N
239406, 665.0166666666667, N
239648, 665.6888888888889, N
239889, 666.3583333333333, N
240127, 667.0194444444444, N
240355, 667.6527777777778, N
240586, 668.2944444444445, N
240817, 668.9361111111111, N
241054, 669.5944444444444, N
241292, 670.2555555555556, N
241524, 670.9, N
241752, 671.5333333333333, N
241989, 672.1916666666667, N
242229, 672.8583333333333, N
242464, 673.5111111111111, N
242693, 674.1472222222222, N
242926, 674.7944444444445, N
243159, 675.4416666666667, N
243397, 676.1027777777778, N
243633, 676.7583333333333, N
243868, 677.4111111111112, N
244099, 678.0527777777778, N
244332, 678.7, N
244569, 679.3583333333333, N
244799, 679.9972222222223, N
245028, 680.6333333333333, N
245254, 681.2611111111111, N
245482, 681.8944444444444, N
245708, 682.5222222222222, N
245943, 683.175, N
246181, 683.8361111111111, N
246411, 684.475, N
246638, 685.1055555555556, N
246876, 685.7666666666667, N
247120, 686.4444444444445, N
247355, 687.0972222222222, N
247580, 687.7222222222222, N
247813, 688.3694444444444, N
248046, 689.0166666666667, N
248284, 689.6777777777778, N
248521, 690.3361111111111, N
248753, 690.9805555555556, N
248982, 691.6166666666667, N
249215, 692.2638888888889, N
249458, 692.9388888888889, N
249691, 693.5861111111111, N
249920, 694.2222222222222, N
250156, 694.8777777777777, N
250395, 695.5416666666666, N
250632, 696.2, N
250869, 696.8583333333333, N
251108, 697.5222222222222, N
251346, 698.1833333333333, N
251580, 698.8333333333334, N
251824, 699.5111111111111, N
252066, 700.1833333333333, N
252302, 700.8388888888888, N
252536, 701.4888888888889, N
252774, 702.15, N
253010, 702.8055555555555, N
253249, 703.4694444444444, N
253486, 704.1277777777777, N
253720, 704.7777777777778, N
253952, 705.4222222222222, N
254191, 706.0861111111111, N
254434, 706.7611111111111, N
254671, 707.4194444444445, N
254901, 708.0583333333333, N
255135, 708.7083333333334, N
255368, 709.3555555555556, N
255612, 710.0333333333333, N
255855, 710.7083333333334, N
256087, 711.3527777777778, N
256319, 711.9972222222223, N
256558, 712.6611111111112, N
256800, 713.3333333333334, N
257035, 713.9861111111111, N
257265, 714.625, N
257497, 715.2694444444444, N
257727, 715.9083333333333, N
257964, 716.5666666666667, N
258204, 717.2333333333333, N
258432, 717.8666666666667, N
258660, 718.5, N
258894, 719.15, N
259136, 719.8222222222222, N
259366, 720.4611111111111, N
259595, 721.0972222222222, N
259830, 721.75, N
260066, 722.4055555555556, N
260304, 723.0666666666667, N
260544, 723.7333333333333, N
260780, 724.3888888888889, N
261015, 725.0416666666666, N
261249, 725.6916666666667, N
261495, 726.375, N
261732, 727.0333333333333, N
261964, 727.6777777777778, N
262196, 728.3222222222222, N
262430, 728.9722222222222, N
262664, 729.6222222222223, N
262900, 730.2777777777778, N
263137, 730.9361111111111, N
263371, 731.5861111111111, N
263600, 732.2222222222222, N
263838, 732.8833333333333, N
264079, 733.5527777777778, N
264314, 734.2055555555555, N
264543, 734.8416666666667, N
264773, 735.4805555555556, N
265004, 736.1222222222223, N
265239, 736.775, N
265477, 737.4361111111111, N
265706, 738.0722222222222, N
265934, 738.7055555555555, N
266168, 739.3555555555556, N
266406, 740.0166666666667, N
266637, 740.6583333333333, N
266863, 741.2861111111112, N
267092, 741.9222222222222, N
267324, 742.5666666666667, N
267562, 743.2277777777778, N
267802, 743.8944444444444, N
268032, 744.5333333333333, N
268262, 745.1722222222222, N
268496, 745.8222222222222, N
268740, 746.5, N
268972, 747.1444444444444, N
269206, 747.7944444444445, N
269437, 748.4361111111111, N
269670, 749.0833333333334, N
269902, 749.7277777777778, N
270139, 750.3861111111111, N
270374, 751.0388888888889, N
270603, 751.675, N
270828, 752.3, N
271063, 752.9527777777778, N
271299, 753.6083333333333, N
271532, 754.2555555555556, N
271759, 754.8861111111111, N
271988, 755.5222222222222, N
272217, 756.1583333333333, N
272450, 756.8055555555555, N
272692, 757.4777777777778, N
272923, 758.1194444444444, N
273152, 758.7555555555556, N
273388, 759.4111111111112, N
273634, 760.0944444444444, N
273868, 760.7444444444444, N
274099, 761.3861111111111, N
274331, 762.0305555555556, N
274571, 762.6972222222222, N
274808, 763.3555555555556, N
275047, 764.0194444444444, N
275280, 764.6666666666666, N
275515, 765.3194444444445, N
275751, 765.975, N
275998, 766.6611111111112, N
276237, 767.325, N
276475, 767.9861111111111, N
276710, 768.6388888888889, N
276952, 769.3111111111111, N
277190, 769.9722222222222, N
277435, 770.6527777777778, N
277675, 771.3194444444445, N
277915, 771.9861111111111, N
278149, 772.6361111111111, N
278393, 773.3138888888889, N
278634, 773.9833333333333, N
278874, 774.65, N
279106, 775.2944444444445, N
279342, 775.95, N
279577, 776.6027777777778, N
279819, 777.275, N
280060, 777.9444444444445, N
280297, 778.6027777777778, N
280527, 779.2416666666667, N
280769, 779.9138888888889, N
281010, 780.5833333333334, N
281248, 781.2444444444444, N
281481, 781.8916666666667, N
281716, 782.5444444444445, N
281949, 783.1916666666667, N
282189, 783.8583333333333, N
282431, 784.5305555555556, N
282665, 785.1805555555555, N
282893, 785.8138888888889, N
283131, 786.475, N
283374, 787.15, N
283606, 787.7944444444445, N
283835, 788.4305555555555, N
284067, 789.075, N
284301, 789.725, N
284538, 790.3833333333333, N
284778, 791.05, N
285008, 791.6888888888889, N
285238, 792.3277777777778, N
285468, 792.9666666666667, N
285712, 793.6444444444444, N
285944, 794.2888888888889, N
286177, 794.9361111111111, N
286406, 795.5722222222222, N
286641, 796.225, N
286870, 796.8611111111111, N
287105, 797.5138888888889, N
287338, 798.1611111111112, N
287568, 798.8, N
287791, 799.4194444444445, N
288026, 800.0722222222222, N
288263, 800.7305555555556, N
288496, 801.3777777777777, N
288719, 801.9972222222223, N
288950, 802.6388888888889, N
289180, 803.2777777777778, N
289418, 803.9388888888889, N
289657, 804.6027777777778, N
289885, 805.2361111111111, N
290115, 805.875, N
290352, 806.5333333333333, N
290596, 807.2111111111111, N
290830, 807.8611111111111, N
291056, 808.4888888888889, N
291288, 809.1333333333333, N
291522, 809.7833333333333, N
291759, 810.4416666666667, N
291997, 811.1027777777778, N
292225, 811.7361111111111, N
292455, 812.375, N
292685, 813.0138888888889, N
292926, 813.6833333333333, N
293156, 814.3222222222222, N
293389, 814.9694444444444, N
293618, 815.6055555555556, N
293852, 816.2555555555556, N
294083, 816.8972222222222, N
294322, 817.5611111111111, N
294558, 818.2166666666667, N
294794, 818.8722222222223, N
295022, 819.5055555555556, N
295263, 820.175, N
295501, 820.8361111111111, N
295736, 821.4888888888889, N
295968, 822.1333333333333, N
296205, 822.7916666666666, N
296435, 823.4305555555555, N
296675, 824.0972222222222, N
296916, 824.7666666666667, N
297152, 825.4222222222222, N
297382, 826.0611111111111, N
297624, 826.7333333333333, N
297871, 827.4194444444445, N
298112, 828.0888888888888, N
298344, 828.7333333333333, N
298584, 829.4, N
298823, 830.0638888888889, N
299069, 830.7472222222223, N
299315, 831.4305555555555, N
299557, 832.1027777777778, N
299790, 832.75, N
300037, 833.4361111111111, N
300282, 834.1166666666667, N
300524, 834.7888888888889, N
300755, 835.4305555555555, N
300992, 836.0888888888888, N
301226, 836.7388888888889, N
301467, 837.4083333333333, N
301710, 838.0833333333334, N
301946, 838.7388888888889, N
302178, 839.3833333333333, N
302418, 840.05, N
302662, 840.7277777777778, N
302903, 841.3972222222222, N
303135, 842.0416666666666, N
303371, 842.6972222222222, N
303607, 843.3527777777778, N
303850, 844.0277777777778, N
304094, 844.7055555555555, N
304312, 845.3111111111111, N
304425, 845.625, +
304523, 845.8972222222222, J
304697, 846.3805555555556, J
304890, 846.9166666666666, J
305063, 847.3972222222222, J
305229, 847.8583333333333, J
305426, 848.4055555555556, J
305622, 848.95, J
305833, 849.5361111111112, J
306055, 850.1527777777778, J
306267, 850.7416666666667, J
306496, 851.3777777777777, J
306727, 852.0194444444444, J
306926, 852.5722222222222, J
307118, 853.1055555555556, J
307339, 853.7194444444444, J
307573, 854.3694444444444, J
307815, 855.0416666666666, J
308053, 855.7027777777778, J
308286, 856.35, J
308480, 856.8888888888889, J
308684, 857.4555555555555, J
308911, 858.0861111111111, J
309101, 858.6138888888889, J
309292, 859.1444444444444, J
309497, 859.7138888888888, J
309695, 860.2638888888889, J
309884, 860.7888888888889, J
310059, 861.275, J
310221, 861.725, J
310371, 862.1416666666667, J
310526, 862.5722222222222, J
310685, 863.0138888888889, J
310852, 863.4777777777778, J
311035, 863.9861111111111, J
311189, 864.4138888888889, J
311354, 864.8722222222223, J
311518, 865.3277777777778, J
311680, 865.7777777777778, J
311833, 866.2027777777778, J
311984, 866.6222222222223, J
312146, 867.0722222222222, J
312304, 867.5111111111111, J
312457, 867.9361111111111, J
312605, 868.3472222222222, J
312763, 868.7861111111112, J
312928, 869.2444444444444, J
313077, 869.6583333333333, J
313227, 870.075, J
313369, 870.4694444444444, J
313517, 870.8805555555556, J
313772, 871.5888888888888, +
313875, 871.875, N
314138, 872.6055555555556, N
314387, 873.2972222222222, N
314642, 874.0055555555556, N
314893, 874.7027777777778, N
315140, 875.3888888888889, N
315380, 876.0555555555555, N
315624, 876.7333333333333, N
315870, 877.4166666666666, N
316118, 878.1055555555556, N
316364, 878.7888888888889, N
316607, 879.4638888888888, N
316848, 880.1333333333333, N
317099, 880.8305555555555, N
317342, 881.5055555555556, N
317582, 882.1722222222222, N
317823, 882.8416666666667, N
318067, 883.5194444444444, N
318308, 884.1888888888889, N
318552, 884.8666666666667, N
318794, 885.5388888888889, N
319031, 886.1972222222222, N
319272, 886.8666666666667, N
319524, 887.5666666666667, N
319765, 888.2361111111111, N
320005, 888.9027777777778, N
320246, 889.5722222222222, N
320490, 890.25, N
320732, 890.9222222222222, N
320978, 891.6055555555556, N
321218, 892.2722222222222, N
321454, 892.9277777777778, N
321691, 893.5861111111111, N
321940, 894.2777777777778, N
322181, 894.9472222222222, N
322415, 895.5972222222222, N
322646, 896.2388888888889, N
322885, 896.9027777777778, N
323122, 897.5611111111111, N
323362, 898.2277777777778, N
323600, 898.8888888888889, N
323833, 899.5361111111112, N
324068, 900.1888888888889, N
324312, 900.8666666666667, N
324552, 901.5333333333333, N
324787, 902.1861111111111, N
325017, 902.825, N
325253, 903.4805555555556, N
325486, 904.1277777777777, N
325722, 904.7833333333333, N
325959, 905.4416666666667, N
326192, 906.0888888888888, N
326424, 906.7333333333333, N
326664, 907.4, N
326904, 908.0666666666667, N
327141, 908.725, N
327372, 909.3666666666667, N
327607, 910.0194444444444, N
327841, 910.6694444444445, N
328082, 911.3388888888888, N
328325, 912.0138888888889, N
328559, 912.6638888888889, N
328790, 913.3055555555555, N
329031, 913.975, N
329275, 914.6527777777778, N
329513, 915.3138888888889, N
329744, 915.9555555555555, N
329977, 916.6027777777778, N
330210, 917.25, N
330450, 917.9166666666666, N
330694, 918.5944444444444, N
330925, 919.2361111111111, N
331154, 919.8722222222223, N
331391, 920.5305555555556, N
331633, 921.2027777777778, N
331867, 921.8527777777778, N
332095, 922.4861111111111, N
332330, 923.1388888888889, N
332564, 923.7888888888889, N
332801, 924.4472222222222, N
333041, 925.1138888888889, N
333276, 925.7666666666667, N
333507, 926.4083333333333, N
333742, 927.0611111111111, N
333985, 927.7361111111111, N
334219, 928.3861111111111, N
334449, 929.025, N
334681, 929.6694444444445, N
334919, 930.3305555555555, N
335155, 930.9861111111111, N
335390, 931.6388888888889, N
335625, 932.2916666666666, N
335856, 932.9333333333333, N
336087, 933.575, N
336329, 934.2472222222223, N
336570, 934.9166666666666, N
336806, 935.5722222222222, N
337040, 936.2222222222222, N
337277, 936.8805555555556, N
337514, 937.5388888888889, N
337757, 938.2138888888888, N
337999, 938.8861111111111, N
338237, 939.5472222222222, N
338471, 940.1972222222222, N
338713, 940.8694444444444, N
338958, 941.55, N
339200, 942.2222222222222, N
339434, 942.8722222222223, N
339668, 943.5222222222222, N
339902, 944.1722222222222, N
340144, 944.8444444444444, N
340388, 945.5222222222222, N
340621, 946.1694444444445, N
340854, 946.8166666666667, N
341098, 947.4944444444444, N
341346, 948.1833333333333, N
341584, 948.8444444444444, N
341818, 949.4944444444444, N
342055, 950.1527777777778, N
342292, 950.8111111111111, N
342533, 951.4805555555556, N
342779, 952.1638888888889, N
343011, 952.8083333333333, N
343243, 953.4527777777778, N
343483, 954.1194444444444, N
343729, 954.8027777777778, N
343964, 955.4555555555555, N
344193, 956.0916666666667, N
344426, 956.7388888888889, N
344661, 957.3916666666667, N
344898, 958.05, N
345140, 958.7222222222222, N
345373, 959.3694444444444, N
345606, 960.0166666666667, N
345839, 960.6638888888889, N
346084, 961.3444444444444, N
346319, 961.9972222222223, N
346552, 962.6444444444444, N
346786, 963.2944444444445, N
347026, 963.9611111111111, N
347261, 964.6138888888889, N
347500, 965.2777777777778, N
347740, 965.9444444444445, N
347977, 966.6027777777778, N
348209, 967.2472222222223, N
348452, 967.9222222222222, N
348692, 968.5888888888888, N
348930, 969.25, N
349162, 969.8944444444444, N
349403, 970.5638888888889, N
349643, 971.2305555555556, N
349886, 971.9055555555556, N
350128, 972.5777777777778, N
350372, 973.2555555555556, N
350609, 973.9138888888889, N
350859, 974.6083333333333, N
351105, 975.2916666666666, N
351349, 975.9694444444444, N
351588, 976.6333333333333, N
351833, 977.3138888888889, N
352074, 977.9833333333333, N
352320, 978.6666666666666, N
352562, 979.3388888888888, N
352802, 980.0055555555556, N
353037, 980.6583333333333, N
353282, 981.3388888888888, N
353520, 982.0, N
353760, 982.6666666666666, N
353995, 983.3194444444445, N
354234, 983.9833333333333, N
354469, 984.6361111111111, N
354712, 985.3111111111111, N
354954, 985.9833333333333, N
355192, 986.6444444444444, N
355425, 987.2916666666666, N
355671, 987.975, N
355915, 988.6527777777778, N
356155, 989.3194444444445, N
356389, 989.9694444444444, N
356628, 990.6333333333333, N
356863, 991.2861111111112, N
357106, 991.9611111111111, N
357345, 992.625, N
357579, 993.275, N
357810, 993.9166666666666, N
358055, 994.5972222222222, N
358299, 995.275, N
358537, 995.9361111111111, N
358768, 996.5777777777778, N
359005, 997.2361111111111, N
359240, 997.8888888888889, N
359481, 998.5583333333333, N
359725, 999.2361111111111, N
359962, 999.8944444444444, N
360194, 1000.5388888888889, N
360437, 1001.2138888888888, N
360684, 1001.9, N
360926, 1002.5722222222222, N
361158, 1003.2166666666667, N
361393, 1003.8694444444444, N
361628, 1004.5222222222222, N
361869, 1005.1916666666667, N
362113, 1005.8694444444444, N
362349, 1006.525, N
362582, 1007.1722222222222, N
362823, 1007.8416666666667, N
363068, 1008.5222222222222, N
363307, 1009.1861111111111, N
363540, 1009.8333333333334, N
363776, 1010.4888888888889, N
364013, 1011.1472222222222, N
364257, 1011.825, N
364504, 1012.5111111111111, N
364739, 1013.1638888888889, N
364972, 1013.8111111111111, N
365213, 1014.4805555555556, N
365458, 1015.1611111111112, N
365692, 1015.8111111111111, N
365921, 1016.4472222222222, N
366152, 1017.0888888888888, N
366385, 1017.7361111111111, N
366623, 1018.3972222222222, N
366865, 1019.0694444444445, N
367096, 1019.7111111111111, N
367327, 1020.3527777777778, N
367562, 1021.0055555555556, N
367809, 1021.6916666666667, N
368042, 1022.3388888888888, N
368274, 1022.9833333333333, N
368510, 1023.6388888888889, N
368747, 1024.2972222222222, N
368984, 1024.9555555555555, N
369226, 1025.6277777777777, N
369391, 1026.0861111111112, V
369696, 1026.9333333333334, N
369930, 1027.5833333333333, N
370174, 1028.2611111111112, N
370406, 1028.9055555555556, N
370638, 1029.55, N
370868, 1030.1888888888889, N
371106, 1030.85, N
371338, 1031.4944444444445, N
371577, 1032.1583333333333, N
371811, 1032.8083333333334, N
372047, 1033.463888888889, N
372277, 1034.1027777777779, N
372521, 1034.7805555555556, N
372763, 1035.4527777777778, N
373001, 1036.1138888888888, N
373228, 1036.7444444444445, N
373463, 1037.3972222222221, N
373695, 1038.0416666666667, N
373933, 1038.7027777777778, N
374171, 1039.3638888888888, N
374402, 1040.0055555555555, N
374629, 1040.6361111111112, N
374865, 1041.2916666666667, N
375107, 1041.963888888889, N
375342, 1042.6166666666666, N
375568, 1043.2444444444445, N
375799, 1043.8861111111112, N
376031, 1044.5305555555556, N
376269, 1045.1916666666666, N
376508, 1045.8555555555556, N
376738, 1046.4944444444445, N
376969, 1047.1361111111112, N
377201, 1047.7805555555556, N
377441, 1048.4472222222223, N
377670, 1049.0833333333333, N
377902, 1049.7277777777779, N
378131, 1050.3638888888888, N
378364, 1051.0111111111112, N
378592, 1051.6444444444444, N
378827, 1052.2972222222222, N
379059, 1052.9416666666666, N
379294, 1053.5944444444444, N
379521, 1054.225, N
379763, 1054.8972222222221, N
380001, 1055.5583333333334, N
380240, 1056.2222222222222, N
380472, 1056.8666666666666, N
380711, 1057.5305555555556, N
380947, 1058.1861111111111, N
381191, 1058.8638888888888, N
381438, 1059.55, N
381676, 1060.2111111111112, N
381906, 1060.85, N
382150, 1061.5277777777778, N
382397, 1062.213888888889, N
382636, 1062.8777777777777, N
382866, 1063.5166666666667, N
383103, 1064.175, N
383338, 1064.8277777777778, N
383581, 1065.5027777777777, N
383824, 1066.1777777777777, N
384062, 1066.838888888889, N
384296, 1067.4888888888888, N
384540, 1068.1666666666667, N
384788, 1068.8555555555556, N
385030, 1069.5277777777778, N
385264, 1070.1777777777777, N
385507, 1070.8527777777779, N
385746, 1071.5166666666667, N
385990, 1072.1944444444443, N
386237, 1072.8805555555555, N
386475, 1073.5416666666667, N
386710, 1074.1944444444443, N
386955, 1074.875, N
387200, 1075.5555555555557, N
387444, 1076.2333333333333, N
387678, 1076.8833333333334, N
387918, 1077.55, N
388157, 1078.213888888889, N
388407, 1078.9083333333333, N
388655, 1079.5972222222222, N
388895, 1080.263888888889, N
389131, 1080.9194444444445, N
389377, 1081.6027777777779, N
389626, 1082.2944444444445, N
389870, 1082.9722222222222, N
390104, 1083.6222222222223, N
390343, 1084.286111111111, N
390578, 1084.9388888888889, N
390823, 1085.6194444444445, N
391070, 1086.3055555555557, N
391306, 1086.9611111111112, N
391536, 1087.6, N
391780, 1088.2777777777778, N
392022, 1088.95, N
392259, 1089.6083333333333, N
392487, 1090.2416666666666, N
392722, 1090.8944444444444, N
392953, 1091.536111111111, N
393190, 1092.1944444444443, N
393430, 1092.861111111111, N
393663, 1093.5083333333334, N
393893, 1094.1472222222221, N
394135, 1094.8194444444443, N
394384, 1095.5111111111112, N
394622, 1096.1722222222222, N
394851, 1096.8083333333334, N
395089, 1097.4694444444444, N
395326, 1098.1277777777777, N
395569, 1098.8027777777777, N
395812, 1099.4777777777779, N
396048, 1100.1333333333334, N
396283, 1100.786111111111, N
396522, 1101.45, N
396772, 1102.1444444444444, N
397012, 1102.8111111111111, N
397247, 1103.463888888889, N
397486, 1104.1277777777777, N
397725, 1104.7916666666667, N
397971, 1105.475, N
398221, 1106.1694444444445, N
398460, 1106.8333333333333, N
398697, 1107.4916666666666, N
398941, 1108.1694444444445, N
399190, 1108.861111111111, N
399434, 1109.5388888888888, N
399667, 1110.1861111111111, N
399905, 1110.8472222222222, N
400142, 1111.5055555555555, N
400389, 1112.1916666666666, N
400634, 1112.8722222222223, N
400872, 1113.5333333333333, N
401105, 1114.1805555555557, N
401349, 1114.8583333333333, N
401597, 1115.5472222222222, N
401835, 1116.2083333333333, N
402065, 1116.8472222222222, N
402304, 1117.5111111111112, N
402541, 1118.1694444444445, N
402783, 1118.8416666666667, N
403028, 1119.5222222222221, N
403263, 1120.175, N
403496, 1120.8222222222223, N
403736, 1121.4888888888888, N
403982, 1122.1722222222222, N
404222, 1122.838888888889, N
404455, 1123.486111111111, N
404693, 1124.1472222222221, N
404931, 1124.8083333333334, N
405173, 1125.4805555555556, N
405417, 1126.1583333333333, N
405656, 1126.8222222222223, N
405891, 1127.475, N
406130, 1128.138888888889, N
406378, 1128.8277777777778, N
406621, 1129.5027777777777, N
406857, 1130.1583333333333, N
407095, 1130.8194444444443, N
407337, 1131.4916666666666, N
407581, 1132.1694444444445, N
407825, 1132.8472222222222, N
408064, 1133.5111111111112, N
408301, 1134.1694444444445, N
408541, 1134.8361111111112, N
408790, 1135.5277777777778, N
409032, 1136.2, N
409265, 1136.8472222222222, N
409501, 1137.5027777777777, N
409740, 1138.1666666666667, N
409984, 1138.8444444444444, N
410227, 1139.5194444444444, N
410462, 1140.1722222222222, N
410697, 1140.825, N
410937, 1141.4916666666666, N
411184, 1142.1777777777777, N
411424, 1142.8444444444444, N
411660, 1143.5, N
411896, 1144.1555555555556, N
412134, 1144.8166666666666, N
412373, 1145.4805555555556, N
412613, 1146.1472222222221, N
412851, 1146.8083333333334, N
413085, 1147.4583333333333, N
413317, 1148.1027777777779, N
413557, 1148.7694444444444, N
413793, 1149.425, N
414029, 1150.0805555555555, N
414261, 1150.725, N
414494, 1151.3722222222223, N
414726, 1152.0166666666667, N
414965, 1152.6805555555557, N
415208, 1153.3555555555556, N
415443, 1154.0083333333334, N
415671, 1154.6416666666667, N
415914, 1155.3166666666666, N
416155, 1155.986111111111, N
416390, 1156.638888888889, N
416617, 1157.2694444444444, N
416852, 1157.9222222222222, N
417087, 1158.575, N
417325, 1159.236111111111, N
417566, 1159.9055555555556, N
417798, 1160.55, N
418026, 1161.1833333333334, N
418263, 1161.8416666666667, N
418508, 1162.5222222222221, N
418747, 1163.1861111111111, N
418979, 1163.8305555555555, N
419219, 1164.4972222222223, N
419460, 1165.1666666666667, N
419707, 1165.8527777777779, N
419957, 1166.5472222222222, N
420198, 1167.2166666666667, N
420437, 1167.8805555555555, N
420678, 1168.55, N
420928, 1169.2444444444445, N
421171, 1169.9194444444445, N
421405, 1170.5694444444443, N
421644, 1171.2333333333333, N
421883, 1171.8972222222221, N
422126, 1172.5722222222223, N
422373, 1173.2583333333334, N
422610, 1173.9166666666667, N
422846, 1174.5722222222223, N
423090, 1175.25, N
423340, 1175.9444444444443, N
423584, 1176.6222222222223, N
423820, 1177.2777777777778, N
424059, 1177.9416666666666, N
424298, 1178.6055555555556, N
424546, 1179.2944444444445, N
424796, 1179.9888888888888, N
425033, 1180.6472222222221, N
425269, 1181.3027777777777, N
425514, 1181.9833333333333, N
425763, 1182.675, N
426003, 1183.3416666666667, N
426237, 1183.9916666666666, N
426475, 1184.6527777777778, N
426712, 1185.3111111111111, N
426956, 1185.9888888888888, N
427203, 1186.675, N
427440, 1187.3333333333333, N
427673, 1187.9805555555556, N
427918, 1188.661111111111, N
428164, 1189.3444444444444, N
428403, 1190.0083333333334, N
428635, 1190.6527777777778, N
428872, 1191.3111111111111, N
429107, 1191.963888888889, N
429346, 1192.6277777777777, N
429592, 1193.3111111111111, N
429830, 1193.9722222222222, N
430063, 1194.6194444444445, N
430304, 1195.2888888888888, N
430553, 1195.9805555555556, N
430792, 1196.6444444444444, N
431024, 1197.2888888888888, N
431261, 1197.9472222222223, N
431499, 1198.6083333333333, N
431743, 1199.286111111111, N
431992, 1199.9777777777779, N
432229, 1200.6361111111112, N
432464, 1201.2888888888888, N
432708, 1201.9666666666667, N
432959, 1202.6638888888888, N
433202, 1203.338888888889, N
433434, 1203.9833333333333, N
433669, 1204.6361111111112, N
433906, 1205.2944444444445, N
434148, 1205.9666666666667, N
434394, 1206.65, N
434630, 1207.3055555555557, N
434867, 1207.963888888889, N
435114, 1208.65, N
435367, 1209.3527777777779, N
435614, 1210.0388888888888, N
435857, 1210.713888888889, N
436104, 1211.4, N
436346, 1212.0722222222223, N
436595, 1212.763888888889, N
436844, 1213.4555555555555, N
437085, 1214.125, N
437325, 1214.7916666666667, N
437574, 1215.4833333333333, N
437822, 1216.1722222222222, N
438065, 1216.8472222222222, N
438308, 1217.5222222222221, N
438552, 1218.2, N
438793, 1218.8694444444445, N
439039, 1219.5527777777777, N
439283, 1220.2305555555556, N
439522, 1220.8944444444444, N
439758, 1221.55, N
440004, 1222.2333333333333, N
440250, 1222.9166666666667, N
440492, 1223.588888888889, N
440727, 1224.2416666666666, N
440967, 1224.9083333333333, N
441204, 1225.5666666666666, N
441445, 1226.236111111111, N
441690, 1226.9166666666667, N
441927, 1227.575, N
442159, 1228.2194444444444, N
442401, 1228.8916666666667, N
442647, 1229.575, N
442886, 1230.2388888888888, N
443118, 1230.8833333333334, N
443351, 1231.5305555555556, N
443585, 1232.1805555555557, N
443822, 1232.838888888889, N
444061, 1233.5027777777777, N
444293, 1234.1472222222221, N
444523, 1234.786111111111, N
444762, 1235.45, N
445005, 1236.125, N
445242, 1236.7833333333333, N
445473, 1237.425, N
445708, 1238.0777777777778, N
445944, 1238.7333333333333, N
446185, 1239.4027777777778, N
446427, 1240.075, N
446658, 1240.7166666666667, N
446891, 1241.3638888888888, N
447125, 1242.013888888889, N
447368, 1242.6888888888889, N
447600, 1243.3333333333333, N
447832, 1243.9777777777779, N
448061, 1244.6138888888888, N
448295, 1245.263888888889, N
448532, 1245.9222222222222, N
448773, 1246.5916666666667, N
449009, 1247.2472222222223, N
449244, 1247.9, N
449478, 1248.55, N
449723, 1249.2305555555556, N
449961, 1249.8916666666667, N
450197, 1250.5472222222222, N
450431, 1251.1972222222223, N
450669, 1251.8583333333333, N
450902, 1252.5055555555555, N
451142, 1253.1722222222222, N
451381, 1253.8361111111112, N
451617, 1254.4916666666666, N
451848, 1255.1333333333334, N
452090, 1255.8055555555557, N
452331, 1256.475, N
452568, 1257.1333333333334, N
452805, 1257.7916666666667, N
453047, 1258.463888888889, N
453284, 1259.1222222222223, N
453526, 1259.7944444444445, N
453769, 1260.4694444444444, N
454005, 1261.125, N
454238, 1261.7722222222221, N
454480, 1262.4444444444443, N
454724, 1263.1222222222223, N
454962, 1263.7833333333333, N
455193, 1264.425, N
455428, 1265.0777777777778, N
455663, 1265.7305555555556, N
455903, 1266.3972222222221, N
456148, 1267.0777777777778, N
456383, 1267.7305555555556, N
456615, 1268.375, N
456856, 1269.0444444444445, N
457104, 1269.7333333333333, N
457348, 1270.411111111111, N
457584, 1271.0666666666666, N
457825, 1271.736111111111, N
458065, 1272.4027777777778, N
458311, 1273.0861111111112, N
458559, 1273.775, N
458799, 1274.4416666666666, N
459037, 1275.1027777777779, N
459284, 1275.7888888888888, N
459530, 1276.4722222222222, N
459771, 1277.1416666666667, N
460004, 1277.7888888888888, N
460240, 1278.4444444444443, N
460474, 1279.0944444444444, N
460715, 1279.763888888889, N
460958, 1280.4388888888889, N
461193, 1281.0916666666667, N
461427, 1281.7416666666666, N
461673, 1282.425, N
461920, 1283.111111111111, N
462162, 1283.7833333333333, N
462400, 1284.4444444444443, N
462640, 1285.111111111111, N
462881, 1285.7805555555556, N
463125, 1286.4583333333333, N
463374, 1287.15, N
463616, 1287.8222222222223, N
463852, 1288.4777777777779, N
464099, 1289.1638888888888, N
464349, 1289.8583333333333, N
464593, 1290.536111111111, N
464832, 1291.2, N
464997, 1291.6583333333333, V
465319, 1292.5527777777777, N
465565, 1293.236111111111, N
465809, 1293.9138888888888, N
466047, 1294.575, N
466281, 1295.225, N
466524, 1295.9, N
466764, 1296.5666666666666, N
467003, 1297.2305555555556, N
467236, 1297.8777777777777, N
467474, 1298.5388888888888, N
467712, 1299.2, N
467954, 1299.8722222222223, N
468194, 1300.5388888888888, N
468434, 1301.2055555555555, N
468669, 1301.8583333333333, N
468917, 1302.5472222222222, N
469162, 1303.2277777777779, N
469402, 1303.8944444444444, N
469638, 1304.55, N
469881, 1305.225, N
470120, 1305.888888888889, N
470365, 1306.5694444444443, N
470608, 1307.2444444444445, N
470847, 1307.9083333333333, N
471084, 1308.5666666666666, N
471332, 1309.2555555555555, N
471575, 1309.9305555555557, N
471818, 1310.6055555555556, N
472057, 1311.2694444444444, N
472301, 1311.9472222222223, N
472538, 1312.6055555555556, N
472782, 1313.2833333333333, N
473025, 1313.9583333333333, N
473265, 1314.625, N
473499, 1315.275, N
473744, 1315.9555555555555, N
473986, 1316.6277777777777, N
474224, 1317.2888888888888, N
474458, 1317.9388888888889, N
474699, 1318.6083333333333, N
474934, 1319.2611111111112, N
475176, 1319.9333333333334, N
475418, 1320.6055555555556, N
475655, 1321.263888888889, N
475890, 1321.9166666666667, N
476138, 1322.6055555555556, N
476382, 1323.2833333333333, N
476623, 1323.9527777777778, N
476857, 1324.6027777777779, N
477097, 1325.2694444444444, N
477335, 1325.9305555555557, N
477578, 1326.6055555555556, N
477822, 1327.2833333333333, N
478061, 1327.9472222222223, N
478293, 1328.5916666666667, N
478537, 1329.2694444444444, N
478781, 1329.9472222222223, N
479021, 1330.6138888888888, N
479257, 1331.2694444444444, N
479498, 1331.9388888888889, N
479737, 1332.6027777777779, N
479984, 1333.2888888888888, N
480232, 1333.9777777777779, N
480479, 1334.6638888888888, N
480720, 1335.3333333333333, N
480970, 1336.0277777777778, N
481219, 1336.7194444444444, N
481467, 1337.4083333333333, N
481709, 1338.0805555555555, N
481955, 1338.763888888889, N
482197, 1339.4361111111111, N
482447, 1340.1305555555555, N
482693, 1340.8138888888889, N
482936, 1341.4888888888888, N
483177, 1342.1583333333333, N
483429, 1342.8583333333333, N
483674, 1343.5388888888888, N
483918, 1344.2166666666667, N
484155, 1344.875, N
484401, 1345.5583333333334, N
484644, 1346.2333333333333, N
484892, 1346.9222222222222, N
485133, 1347.5916666666667, N
485375, 1348.263888888889, N
485611, 1348.9194444444445, N
485861, 1349.6138888888888, N
486099, 1350.275, N
486337, 1350.9361111111111, N
486404, 1351.1222222222223, ~
486572, 1351.588888888889, N
486813, 1352.2583333333334, N
487050, 1352.9166666666667, N
487295, 1353.5972222222222, N
487388, 1353.8555555555556, ~
487534, 1354.2611111111112, N
487774, 1354.9277777777777, N
488010, 1355.5833333333333, N
488257, 1356.2694444444444, N
488494, 1356.9277777777777, N
488730, 1357.5833333333333, N
488965, 1358.236111111111, N
489209, 1358.9138888888888, N
489446, 1359.5722222222223, N
489690, 1360.25, N
489931, 1360.9194444444445, N
490175, 1361.5972222222222, N
490415, 1362.263888888889, N
490670, 1362.9722222222222, N
490916, 1363.6555555555556, N
491158, 1364.3277777777778, N
491393, 1364.9805555555556, N
491637, 1365.6583333333333, N
491880, 1366.3333333333333, N
492127, 1367.0194444444444, N
492363, 1367.675, N
492601, 1368.3361111111112, N
492841, 1369.0027777777777, N
493096, 1369.7111111111112, N
493340, 1370.388888888889, N
493581, 1371.0583333333334, N
493777, 1371.6027777777779, ~
493822, 1371.7277777777779, N
494068, 1372.411111111111, N
494314, 1373.0944444444444, N
494565, 1373.7916666666667, N
494806, 1374.4611111111112, N
495048, 1375.1333333333334, N
495292, 1375.8111111111111, N
495544, 1376.5111111111112, N
495785, 1377.1805555555557, N
496024, 1377.8444444444444, N
496265, 1378.513888888889, N
496507, 1379.1861111111111, N
496751, 1379.8638888888888, N
497001, 1380.5583333333334, N
497239, 1381.2194444444444, N
497474, 1381.8722222222223, N
497715, 1382.5416666666667, N
497964, 1383.2333333333333, N
498200, 1383.888888888889, N
498430, 1384.5277777777778, N
498663, 1385.175, N
498896, 1385.8222222222223, N
499133, 1386.4805555555556, N
499374, 1387.15, N
499603, 1387.786111111111, N
499830, 1388.4166666666667, N
500057, 1389.0472222222222, N
500296, 1389.7111111111112, N
500524, 1390.3444444444444, N
500750, 1390.9722222222222, N
500972, 1391.588888888889, N
501204, 1392.2333333333333, N
501430, 1392.861111111111, N
501661, 1393.5027777777777, N
501888, 1394.1333333333334, N
502117, 1394.7694444444444, N
502340, 1395.388888888889, N
502572, 1396.0333333333333, N
502805, 1396.6805555555557, N
503034, 1397.3166666666666, N
503257, 1397.9361111111111, N
503484, 1398.5666666666666, N
503712, 1399.2, N
503946, 1399.85, N
504182, 1400.5055555555555, N
504409, 1401.1361111111112, N
504639, 1401.775, N
504871, 1402.4194444444445, N
505111, 1403.0861111111112, N
505341, 1403.725, N
505570, 1404.361111111111, N
505797, 1404.9916666666666, N
506030, 1405.638888888889, N
506259, 1406.275, N
506493, 1406.925, N
506721, 1407.5583333333334, N
506947, 1408.1861111111111, N
507168, 1408.8, N
507400, 1409.4444444444443, N
507631, 1410.0861111111112, N
507858, 1410.7166666666667, N
508077, 1411.325, N
508298, 1411.9388888888889, N
508519, 1412.5527777777777, N
508744, 1413.1777777777777, N
508976, 1413.8222222222223, N
509197, 1414.4361111111111, N
509418, 1415.05, N
509639, 1415.6638888888888, N
509873, 1416.3138888888889, N
510098, 1416.9388888888889, N
510324, 1417.5666666666666, N
510545, 1418.1805555555557, N
510771, 1418.8083333333334, N
510992, 1419.4222222222222, N
511220, 1420.0555555555557, N
511450, 1420.6944444444443, N
511669, 1421.3027777777777, N
511887, 1421.9083333333333, N
512111, 1422.5305555555556, N
512343, 1423.175, N
512561, 1423.7805555555556, N
512781, 1424.3916666666667, N
512996, 1424.9888888888888, N
513221, 1425.6138888888888, N
513441, 1426.225, N
513669, 1426.8583333333333, N
513898, 1427.4944444444445, N
514122, 1428.1166666666666, N
514345, 1428.736111111111, N
514573, 1429.3694444444445, N
514810, 1430.0277777777778, N
515037, 1430.6583333333333, N
515260, 1431.2777777777778, N
515486, 1431.9055555555556, N
515715, 1432.5416666666667, N
515948, 1433.1888888888889, N
516182, 1433.838888888889, N
516411, 1434.475, N
516641, 1435.1138888888888, N
516867, 1435.7416666666666, N
517103, 1436.3972222222221, N
517336, 1437.0444444444445, N
517571, 1437.6972222222223, N
517797, 1438.325, N
518032, 1438.9777777777779, N
518262, 1439.6166666666666, N
518501, 1440.2805555555556, N
518737, 1440.9361111111111, N
518969, 1441.5805555555555, N
519195, 1442.2083333333333, N
519433, 1442.8694444444445, N
519670, 1443.5277777777778, N
519903, 1444.175, N
520129, 1444.8027777777777, N
520265, 1445.1805555555557, ~
520364, 1445.4555555555555, N
520596, 1446.1, N
520834, 1446.7611111111112, N
521078, 1447.4388888888889, N
521313, 1448.0916666666667, N
521547, 1448.7416666666666, N
521791, 1449.4194444444445, N
522042, 1450.1166666666666, N
522286, 1450.7944444444445, N
522523, 1451.4527777777778, N
522768, 1452.1333333333334, N
523011, 1452.8083333333334, N
523261, 1453.5027777777777, N
523515, 1454.2083333333333, N
523764, 1454.9, N
524003, 1455.5638888888889, N
524251, 1456.2527777777777, N
524503, 1456.9527777777778, N
524751, 1457.6416666666667, N
524986, 1458.2944444444445, N
525230, 1458.9722222222222, N
525472, 1459.6444444444444, N
525719, 1460.3305555555555, N
525962, 1461.0055555555555, N
526206, 1461.6833333333334, N
526443, 1462.3416666666667, N
526695, 1463.0416666666667, N
526942, 1463.7277777777779, N
527187, 1464.4083333333333, N
527424, 1465.0666666666666, N
527669, 1465.7472222222223, N
527912, 1466.4222222222222, N
528161, 1467.1138888888888, N
528404, 1467.7888888888888, N
528645, 1468.4583333333333, N
528886, 1469.1277777777777, N
529141, 1469.8361111111112, N
529384, 1470.5111111111112, N
529626, 1471.1833333333334, N
529865, 1471.8472222222222, N
530108, 1472.5222222222221, N
530348, 1473.1888888888889, N
530594, 1473.8722222222223, N
530833, 1474.536111111111, N
531074, 1475.2055555555555, N
531312, 1475.8666666666666, N
531561, 1476.5583333333334, N
531800, 1477.2222222222222, N
532039, 1477.8861111111112, N
532278, 1478.55, N
532520, 1479.2222222222222, N
532761, 1479.8916666666667, N
533006, 1480.5722222222223, N
533245, 1481.236111111111, N
533481, 1481.8916666666667, N
533715, 1482.5416666666667, N
533962, 1483.2277777777779, N
534195, 1483.875, N
534427, 1484.5194444444444, N
534655, 1485.1527777777778, N
534893, 1485.8138888888889, N
535129, 1486.4694444444444, N
535367, 1487.1305555555555, N
535602, 1487.7833333333333, N
535840, 1488.4444444444443, N
536073, 1489.0916666666667, N
536321, 1489.7805555555556, N
536562, 1490.45, N
536802, 1491.1166666666666, N
537039, 1491.775, N
537285, 1492.4583333333333, N
537527, 1493.1305555555555, N
537775, 1493.8194444444443, N
538015, 1494.486111111111, N
538257, 1495.1583333333333, N
538498, 1495.8277777777778, N
538749, 1496.525, N
538993, 1497.2027777777778, N
539237, 1497.8805555555555, N
539480, 1498.5555555555557, N
539728, 1499.2444444444445, N
539979, 1499.9416666666666, N
540232, 1500.6444444444444, N
540476, 1501.3222222222223, N
540719, 1501.9972222222223, N
540969, 1502.6916666666666, N
541225, 1503.4027777777778, N
541472, 1504.088888888889, N
541710, 1504.75, N
541953, 1505.425, N
542193, 1506.0916666666667, N
542439, 1506.775, N
542687, 1507.463888888889, N
542924, 1508.1222222222223, N
543156, 1508.7666666666667, N
543399, 1509.4416666666666, N
543647, 1510.1305555555555, N
543886, 1510.7944444444445, N
544118, 1511.4388888888889, N
544356, 1512.1, N
544593, 1512.7583333333334, N
544835, 1513.4305555555557, N
545081, 1514.1138888888888, N
545319, 1514.775, N
545554, 1515.4277777777777, N
545794, 1516.0944444444444, N
546041, 1516.7805555555556, N
546279, 1517.4416666666666, N
546508, 1518.0777777777778, N
546740, 1518.7222222222222, N
546977, 1519.3805555555555, N
547213, 1520.036111111111, N
547452, 1520.7, N
547687, 1521.3527777777779, N
547924, 1522.0111111111112, N
548160, 1522.6666666666667, N
548407, 1523.3527777777779, N
548645, 1524.013888888889, N
548883, 1524.675, N
549120, 1525.3333333333333, N
549362, 1526.0055555555555, N
549606, 1526.6833333333334, N
549853, 1527.3694444444445, N
550093, 1528.036111111111, N
550332, 1528.7, N
550570, 1529.361111111111, N
550820, 1530.0555555555557, N
551060, 1530.7222222222222, N
551297, 1531.3805555555555, N
551532, 1532.0333333333333, N
551773, 1532.7027777777778, N
552013, 1533.3694444444445, N
552258, 1534.05, N
552497, 1534.713888888889, N
552736, 1535.3777777777777, N
552977, 1536.0472222222222, N
553229, 1536.7472222222223, N
553471, 1537.4194444444445, N
553712, 1538.088888888889, N
553954, 1538.7611111111112, N
554199, 1539.4416666666666, N
554444, 1540.1222222222223, N
554690, 1540.8055555555557, N
554929, 1541.4694444444444, N
555168, 1542.1333333333334, N
555408, 1542.8, N
555657, 1543.4916666666666, N
555896, 1544.1555555555556, N
556130, 1544.8055555555557, N
556367, 1545.463888888889, N
556606, 1546.1277777777777, N
556849, 1546.8027777777777, N
557093, 1547.4805555555556, N
557330, 1548.138888888889, N
557566, 1548.7944444444445, N
557805, 1549.4583333333333, N
558054, 1550.15, N
558296, 1550.8222222222223, N
558531, 1551.475, N
558765, 1552.125, N
559004, 1552.7888888888888, N
559243, 1553.4527777777778, N
559485, 1554.125, N
559719, 1554.775, N
559951, 1555.4194444444445, N
560185, 1556.0694444444443, N
560432, 1556.7555555555555, N
560668, 1557.411111111111, N
560901, 1558.0583333333334, N
561134, 1558.7055555555555, N
561374, 1559.3722222222223, N
561615, 1560.0416666666667, N
561855, 1560.7083333333333, N
562089, 1561.3583333333333, N
562324, 1562.0111111111112, N
562560, 1562.6666666666667, N
562807, 1563.3527777777779, N
563042, 1564.0055555555555, N
563277, 1564.6583333333333, N
563512, 1565.3111111111111, N
563751, 1565.975, N
563989, 1566.6361111111112, N
564231, 1567.3083333333334, N
564466, 1567.9611111111112, N
564701, 1568.6138888888888, N
564931, 1569.2527777777777, N
565175, 1569.9305555555557, N
565411, 1570.5861111111112, N
565645, 1571.236111111111, N
565877, 1571.8805555555555, N
566114, 1572.5388888888888, N
566346, 1573.1833333333334, N
566587, 1573.8527777777779, N
566825, 1574.513888888889, N
567062, 1575.1722222222222, N
567294, 1575.8166666666666, N
567537, 1576.4916666666666, N
567777, 1577.1583333333333, N
568014, 1577.8166666666666, N
568243, 1578.4527777777778, N
568483, 1579.1194444444445, N
568715, 1579.763888888889, N
568953, 1580.425, N
569189, 1581.0805555555555, N
569428, 1581.7444444444445, N
569660, 1582.388888888889, N
569904, 1583.0666666666666, N
570146, 1583.7388888888888, N
570389, 1584.4138888888888, N
570623, 1585.0638888888889, N
570864, 1585.7333333333333, N
571105, 1586.4027777777778, N
571351, 1587.0861111111112, N
571594, 1587.7611111111112, N
571835, 1588.4305555555557, N
572070, 1589.0833333333333, N
572316, 1589.7666666666667, N
572559, 1590.4416666666666, N
572802, 1591.1166666666666, N
573037, 1591.7694444444444, N
573275, 1592.4305555555557, N
573510, 1593.0833333333333, N
573755, 1593.763888888889, N
573996, 1594.4333333333334, N
574233, 1595.0916666666667, N
574467, 1595.7416666666666, N
574712, 1596.4222222222222, N
574954, 1597.0944444444444, N
575198, 1597.7722222222221, N
575432, 1598.4222222222222, N
575673, 1599.0916666666667, N
575907, 1599.7416666666666, N
576153, 1600.425, N
576397, 1601.1027777777779, N
576635, 1601.763888888889, N
576867, 1602.4083333333333, N
577116, 1603.1, N
577362, 1603.7833333333333, N
577603, 1604.4527777777778, N
577838, 1605.1055555555556, N
578079, 1605.775, N
578316, 1606.4333333333334, N
578560, 1607.111111111111, N
578804, 1607.7888888888888, N
579046, 1608.4611111111112, N
579280, 1609.111111111111, N
579528, 1609.8, N
579777, 1610.4916666666666, N
580022, 1611.1722222222222, N
580257, 1611.825, N
580500, 1612.5, N
580737, 1613.1583333333333, N
580983, 1613.8416666666667, N
581227, 1614.5194444444444, N
581469, 1615.1916666666666, N
581703, 1615.8416666666667, N
581947, 1616.5194444444444, N
582189, 1617.1916666666666, N
582429, 1617.8583333333333, N
582665, 1618.513888888889, N
582902, 1619.1722222222222, N
583137, 1619.825, N
583380, 1620.5, N
583624, 1621.1777777777777, N
583863, 1621.8416666666667, N
584096, 1622.4888888888888, N
584342, 1623.1722222222222, N
584588, 1623.8555555555556, N
584829, 1624.525, N
585061, 1625.1694444444445, N
585303, 1625.8416666666667, N
585540, 1626.5, N
585785, 1627.1805555555557, N
586029, 1627.8583333333333, N
586268, 1628.5222222222221, N
586501, 1629.1694444444445, N
586746, 1629.85, N
586988, 1630.5222222222221, N
587228, 1631.1888888888889, N
587461, 1631.8361111111112, N
587702, 1632.5055555555555, N
587937, 1633.1583333333333, N
588184, 1633.8444444444444, N
588430, 1634.5277777777778, N
588673, 1635.2027777777778, N
588908, 1635.8555555555556, N
589156, 1636.5444444444445, N
589403, 1637.2305555555556, N
589647, 1637.9083333333333, N
589885, 1638.5694444444443, N
590130, 1639.25, N
590366, 1639.9055555555556, N
590611, 1640.5861111111112, N
590857, 1641.2694444444444, N
591098, 1641.9388888888889, N
591332, 1642.588888888889, N
591580, 1643.2777777777778, N
591828, 1643.9666666666667, N
592071, 1644.6416666666667, N
592305, 1645.2916666666667, N
592548, 1645.9666666666667, N
592788, 1646.6333333333334, N
593034, 1647.3166666666666, N
593277, 1647.9916666666666, N
593517, 1648.6583333333333, N
593752, 1649.3111111111111, N
594000, 1650.0, N
594243, 1650.675, N
594483, 1651.3416666666667, N
594714, 1651.9833333333333, N
594951, 1652.6416666666667, N
595185, 1653.2916666666667, N
595426, 1653.9611111111112, N
595662, 1654.6166666666666, N
595896, 1655.2666666666667, N
596131, 1655.9194444444445, N
596375, 1656.5972222222222, N
596614, 1657.2611111111112, N
596854, 1657.9277777777777, N
597089, 1658.5805555555555, N
597329, 1659.2472222222223, N
597564, 1659.9, N
597808, 1660.5777777777778, N
598051, 1661.2527777777777, N
598289, 1661.9138888888888, N
598523, 1662.5638888888889, N
598769, 1663.2472222222223, N
599008, 1663.911111111111, N
599245, 1664.5694444444443, N
599478, 1665.2166666666667, N
599717, 1665.8805555555555, N
599952, 1666.5333333333333, N
600196, 1667.2111111111112, N
600441, 1667.8916666666667, N
600683, 1668.5638888888889, N
600920, 1669.2222222222222, N
601171, 1669.9194444444445, N
601420, 1670.611111111111, N
601665, 1671.2916666666667, N
601906, 1671.9611111111112, N
602154, 1672.65, N
602398, 1673.3277777777778, N
602646, 1674.0166666666667, N
602891, 1674.6972222222223, N
603134, 1675.3722222222223, N
603375, 1676.0416666666667, N
603626, 1676.7388888888888, N
603869, 1677.4138888888888, N
604107, 1678.075, N
604349, 1678.7472222222223, N
604594, 1679.4277777777777, N
604840, 1680.111111111111, N
605089, 1680.8027777777777, N
605329, 1681.4694444444444, N
605570, 1682.138888888889, N
605814, 1682.8166666666666, N
606066, 1683.5166666666667, N
606310, 1684.1944444444443, N
606546, 1684.85, N
606786, 1685.5166666666667, N
607025, 1686.1805555555557, N
607273, 1686.8694444444445, N
607518, 1687.55, N
607754, 1688.2055555555555, N
607990, 1688.861111111111, N
608230, 1689.5277777777778, N
608477, 1690.213888888889, N
608719, 1690.8861111111112, N
608953, 1691.536111111111, N
609190, 1692.1944444444443, N
609427, 1692.8527777777779, N
609671, 1693.5305555555556, N
609918, 1694.2166666666667, N
610156, 1694.8777777777777, N
610389, 1695.525, N
610630, 1696.1944444444443, N
610877, 1696.8805555555555, N
611114, 1697.5388888888888, N
611346, 1698.1833333333334, N
611581, 1698.8361111111112, N
611817, 1699.4916666666666, N
612056, 1700.1555555555556, N
612294, 1700.8166666666666, N
612528, 1701.4666666666667, N
612760, 1702.111111111111, N
612994, 1702.7611111111112, N
613240, 1703.4444444444443, N
613475, 1704.0972222222222, N
613708, 1704.7444444444445, N
613942, 1705.3944444444444, N
614182, 1706.0611111111111, N
614419, 1706.7194444444444, N
614658, 1707.3833333333334, N
614895, 1708.0416666666667, N
615133, 1708.7027777777778, N
615364, 1709.3444444444444, N
615531, 1709.8083333333334, V
615844, 1710.6777777777777, N
616082, 1711.338888888889, N
616312, 1711.9777777777779, N
616544, 1712.6222222222223, N
616773, 1713.2583333333334, N
617011, 1713.9194444444445, N
617249, 1714.5805555555555, N
617484, 1715.2333333333333, N
617712, 1715.8666666666666, N
617951, 1716.5305555555556, N
618191, 1717.1972222222223, N
618429, 1717.8583333333333, N
618656, 1718.4888888888888, N
618890, 1719.138888888889, N
619121, 1719.7805555555556, N
619360, 1720.4444444444443, N
619598, 1721.1055555555556, N
619832, 1721.7555555555555, N
620061, 1722.3916666666667, N
620303, 1723.0638888888889, N
620546, 1723.7388888888888, N
620781, 1724.3916666666667, N
620987, 1724.963888888889, N
621248, 1725.6888888888889, N
621486, 1726.35, N
621732, 1727.0333333333333, N
621979, 1727.7194444444444, N
622217, 1728.3805555555555, N
622452, 1729.0333333333333, N
622695, 1729.7083333333333, N
622944, 1730.4, N
623186, 1731.0722222222223, N
623420, 1731.7222222222222, N
623661, 1732.3916666666667, N
623898, 1733.05, N
624144, 1733.7333333333333, N
624393, 1734.425, N
624635, 1735.0972222222222, N
624870, 1735.75, N
625117, 1736.4361111111111, N
625370, 1737.138888888889, N
625618, 1737.8277777777778, N
625858, 1738.4944444444445, N
626105, 1739.1805555555557, N
626348, 1739.8555555555556, N
626599, 1740.5527777777777, N
626849, 1741.2472222222223, N
627093, 1741.925, N
627334, 1742.5944444444444, N
627588, 1743.3, N
627836, 1743.9888888888888, N
628081, 1744.6694444444445, N
628319, 1745.3305555555555, N
628562, 1746.0055555555555, N
628802, 1746.6722222222222, N
629047, 1747.3527777777779, N
629285, 1748.013888888889, N
629522, 1748.6722222222222, N
629758, 1749.3277777777778, N
630004, 1750.0111111111112, N
630242, 1750.6722222222222, N
630479, 1751.3305555555555, N
630711, 1751.975, N
630947, 1752.6305555555555, N
631178, 1753.2722222222221, N
631416, 1753.9333333333334, N
631651, 1754.5861111111112, N
631886, 1755.2388888888888, N
632114, 1755.8722222222223, N
632352, 1756.5333333333333, N
632588, 1757.1888888888889, N
632823, 1757.8416666666667, N
633051, 1758.475, N
633283, 1759.1194444444445, N
633511, 1759.7527777777777, N
633751, 1760.4194444444445, N
633991, 1761.0861111111112, N
634223, 1761.7305555555556, N
634452, 1762.3666666666666, N
634693, 1763.036111111111, N
634939, 1763.7194444444444, N
635179, 1764.3861111111112, N
635410, 1765.0277777777778, N
635650, 1765.6944444444443, N
635889, 1766.3583333333333, N
636136, 1767.0444444444445, N
636384, 1767.7333333333333, N
636628, 1768.411111111111, N
636862, 1769.0611111111111, N
637111, 1769.7527777777777, N
637360, 1770.4444444444443, N
637604, 1771.1222222222223, N
637840, 1771.7777777777778, N
638084, 1772.4555555555555, N
638325, 1773.125, N
638573, 1773.8138888888889, N
638818, 1774.4944444444445, N
639064, 1775.1777777777777, N
639305, 1775.8472222222222, N
639556, 1776.5444444444445, N
639802, 1777.2277777777779, N
640051, 1777.9194444444445, N
640294, 1778.5944444444444, N
640541, 1779.2805555555556, N
640785, 1779.9583333333333, N
641036, 1780.6555555555556, N
641281, 1781.3361111111112, N
641523, 1782.0083333333334, N
641767, 1782.6861111111111, N
642021, 1783.3916666666667, N
642266, 1784.0722222222223, N
642508, 1784.7444444444445, N
642745, 1785.4027777777778, N
642988, 1786.0777777777778, N
643233, 1786.7583333333334, N
643481, 1787.4472222222223, N
643720, 1788.111111111111, N
643956, 1788.7666666666667, N
644197, 1789.4361111111111, N
644450, 1790.138888888889, N
644691, 1790.8083333333334, N
644927, 1791.463888888889, N
645167, 1792.1305555555555, N
645410, 1792.8055555555557, N
645653, 1793.4805555555556, N
645900, 1794.1666666666667, N
646142, 1794.838888888889, N
646380, 1795.5, N
646621, 1796.1694444444445, N
646872, 1796.8666666666666, N
647112, 1797.5333333333333, N
647347, 1798.1861111111111, N
647586, 1798.85, N
647827, 1799.5194444444444, N
648071, 1800.1972222222223, N
648316, 1800.8777777777777, N
648556, 1801.5444444444445, N
648797, 1802.213888888889, N
649040, 1802.888888888889, N
649292, 1803.588888888889, N
649536, 1804.2666666666667, N
649772, 1804.9222222222222, N
